#  E (eV)   dos(E)     Int dos(E) EFermi =   7.984 eV
 -14.866  0.5792E-03  0.5792E-05
 -14.856  0.6944E-03  0.1274E-04
 -14.846  0.8311E-03  0.2105E-04
 -14.836  0.9931E-03  0.3098E-04
 -14.826  0.1185E-02  0.4283E-04
 -14.816  0.1411E-02  0.5693E-04
 -14.806  0.1677E-02  0.7371E-04
 -14.796  0.1991E-02  0.9362E-04
 -14.786  0.2359E-02  0.1172E-03
 -14.776  0.2791E-02  0.1451E-03
 -14.766  0.3296E-02  0.1781E-03
 -14.756  0.3886E-02  0.2169E-03
 -14.746  0.4573E-02  0.2627E-03
 -14.736  0.5374E-02  0.3164E-03
 -14.726  0.6305E-02  0.3794E-03
 -14.716  0.7384E-02  0.4533E-03
 -14.706  0.8633E-02  0.5396E-03
 -14.696  0.1008E-01  0.6404E-03
 -14.686  0.1174E-01  0.7578E-03
 -14.676  0.1366E-01  0.8945E-03
 -14.666  0.1587E-01  0.1053E-02
 -14.656  0.1840E-01  0.1237E-02
 -14.646  0.2130E-01  0.1450E-02
 -14.636  0.2462E-01  0.1696E-02
 -14.626  0.2841E-01  0.1981E-02
 -14.616  0.3273E-01  0.2308E-02
 -14.606  0.3764E-01  0.2684E-02
 -14.596  0.4321E-01  0.3116E-02
 -14.586  0.4954E-01  0.3612E-02
 -14.576  0.5669E-01  0.4179E-02
 -14.566  0.6477E-01  0.4826E-02
 -14.556  0.7389E-01  0.5565E-02
 -14.546  0.8415E-01  0.6407E-02
 -14.536  0.9567E-01  0.7363E-02
 -14.526  0.1086E+00  0.8449E-02
 -14.516  0.1231E+00  0.9680E-02
 -14.506  0.1393E+00  0.1107E-01
 -14.496  0.1573E+00  0.1265E-01
 -14.486  0.1774E+00  0.1442E-01
 -14.476  0.1998E+00  0.1642E-01
 -14.466  0.2246E+00  0.1866E-01
 -14.456  0.2521E+00  0.2118E-01
 -14.446  0.2825E+00  0.2401E-01
 -14.436  0.3161E+00  0.2717E-01
 -14.426  0.3531E+00  0.3070E-01
 -14.416  0.3938E+00  0.3464E-01
 -14.406  0.4384E+00  0.3902E-01
 -14.396  0.4874E+00  0.4390E-01
 -14.386  0.5411E+00  0.4931E-01
 -14.376  0.5996E+00  0.5530E-01
 -14.366  0.6635E+00  0.6194E-01
 -14.356  0.7331E+00  0.6927E-01
 -14.346  0.8086E+00  0.7736E-01
 -14.336  0.8906E+00  0.8626E-01
 -14.326  0.9793E+00  0.9606E-01
 -14.316  0.1075E+01  0.1068E+00
 -14.306  0.1179E+01  0.1186E+00
 -14.296  0.1290E+01  0.1315E+00
 -14.286  0.1410E+01  0.1456E+00
 -14.276  0.1539E+01  0.1610E+00
 -14.266  0.1677E+01  0.1778E+00
 -14.256  0.1824E+01  0.1960E+00
 -14.246  0.1982E+01  0.2158E+00
 -14.236  0.2150E+01  0.2373E+00
 -14.226  0.2328E+01  0.2606E+00
 -14.216  0.2518E+01  0.2858E+00
 -14.206  0.2719E+01  0.3130E+00
 -14.196  0.2932E+01  0.3423E+00
 -14.186  0.3157E+01  0.3739E+00
 -14.176  0.3394E+01  0.4078E+00
 -14.166  0.3644E+01  0.4442E+00
 -14.156  0.3907E+01  0.4833E+00
 -14.146  0.4182E+01  0.5251E+00
 -14.136  0.4471E+01  0.5698E+00
 -14.126  0.4772E+01  0.6176E+00
 -14.116  0.5087E+01  0.6684E+00
 -14.106  0.5415E+01  0.7226E+00
 -14.096  0.5756E+01  0.7801E+00
 -14.086  0.6110E+01  0.8412E+00
 -14.076  0.6478E+01  0.9060E+00
 -14.066  0.6857E+01  0.9746E+00
 -14.056  0.7250E+01  0.1047E+01
 -14.046  0.7654E+01  0.1124E+01
 -14.036  0.8070E+01  0.1204E+01
 -14.026  0.8498E+01  0.1289E+01
 -14.016  0.8936E+01  0.1379E+01
 -14.006  0.9385E+01  0.1473E+01
 -13.996  0.9844E+01  0.1571E+01
 -13.986  0.1031E+02  0.1674E+01
 -13.976  0.1079E+02  0.1782E+01
 -13.966  0.1127E+02  0.1895E+01
 -13.956  0.1176E+02  0.2012E+01
 -13.946  0.1226E+02  0.2135E+01
 -13.936  0.1276E+02  0.2263E+01
 -13.926  0.1327E+02  0.2395E+01
 -13.916  0.1378E+02  0.2533E+01
 -13.906  0.1429E+02  0.2676E+01
 -13.896  0.1481E+02  0.2824E+01
 -13.886  0.1532E+02  0.2977E+01
 -13.876  0.1584E+02  0.3136E+01
 -13.866  0.1635E+02  0.3299E+01
 -13.856  0.1686E+02  0.3468E+01
 -13.846  0.1737E+02  0.3641E+01
 -13.836  0.1787E+02  0.3820E+01
 -13.826  0.1836E+02  0.4004E+01
 -13.816  0.1885E+02  0.4192E+01
 -13.806  0.1933E+02  0.4386E+01
 -13.796  0.1980E+02  0.4584E+01
 -13.786  0.2027E+02  0.4786E+01
 -13.776  0.2072E+02  0.4993E+01
 -13.766  0.2115E+02  0.5205E+01
 -13.756  0.2158E+02  0.5421E+01
 -13.746  0.2199E+02  0.5641E+01
 -13.736  0.2238E+02  0.5864E+01
 -13.726  0.2276E+02  0.6092E+01
 -13.716  0.2312E+02  0.6323E+01
 -13.706  0.2347E+02  0.6558E+01
 -13.696  0.2379E+02  0.6796E+01
 -13.686  0.2410E+02  0.7037E+01
 -13.676  0.2438E+02  0.7280E+01
 -13.666  0.2464E+02  0.7527E+01
 -13.656  0.2489E+02  0.7776E+01
 -13.646  0.2511E+02  0.8027E+01
 -13.636  0.2530E+02  0.8280E+01
 -13.626  0.2548E+02  0.8535E+01
 -13.616  0.2563E+02  0.8791E+01
 -13.606  0.2575E+02  0.9048E+01
 -13.596  0.2586E+02  0.9307E+01
 -13.586  0.2593E+02  0.9566E+01
 -13.576  0.2598E+02  0.9826E+01
 -13.566  0.2601E+02  0.1009E+02
 -13.556  0.2601E+02  0.1035E+02
 -13.546  0.2599E+02  0.1061E+02
 -13.536  0.2594E+02  0.1087E+02
 -13.526  0.2586E+02  0.1112E+02
 -13.516  0.2576E+02  0.1138E+02
 -13.506  0.2564E+02  0.1164E+02
 -13.496  0.2549E+02  0.1189E+02
 -13.486  0.2531E+02  0.1215E+02
 -13.476  0.2511E+02  0.1240E+02
 -13.466  0.2489E+02  0.1265E+02
 -13.456  0.2464E+02  0.1289E+02
 -13.446  0.2438E+02  0.1314E+02
 -13.436  0.2409E+02  0.1338E+02
 -13.426  0.2377E+02  0.1362E+02
 -13.416  0.2344E+02  0.1385E+02
 -13.406  0.2309E+02  0.1408E+02
 -13.396  0.2272E+02  0.1431E+02
 -13.386  0.2233E+02  0.1453E+02
 -13.376  0.2192E+02  0.1475E+02
 -13.366  0.2150E+02  0.1497E+02
 -13.356  0.2106E+02  0.1518E+02
 -13.346  0.2061E+02  0.1538E+02
 -13.336  0.2015E+02  0.1558E+02
 -13.326  0.1967E+02  0.1578E+02
 -13.316  0.1918E+02  0.1597E+02
 -13.306  0.1869E+02  0.1616E+02
 -13.296  0.1818E+02  0.1634E+02
 -13.286  0.1767E+02  0.1652E+02
 -13.276  0.1715E+02  0.1669E+02
 -13.266  0.1663E+02  0.1686E+02
 -13.256  0.1610E+02  0.1702E+02
 -13.246  0.1557E+02  0.1717E+02
 -13.236  0.1504E+02  0.1732E+02
 -13.226  0.1451E+02  0.1747E+02
 -13.216  0.1399E+02  0.1761E+02
 -13.206  0.1346E+02  0.1774E+02
 -13.196  0.1294E+02  0.1787E+02
 -13.186  0.1242E+02  0.1800E+02
 -13.176  0.1191E+02  0.1811E+02
 -13.166  0.1140E+02  0.1823E+02
 -13.156  0.1090E+02  0.1834E+02
 -13.146  0.1041E+02  0.1844E+02
 -13.136  0.9928E+01  0.1854E+02
 -13.126  0.9456E+01  0.1864E+02
 -13.116  0.8994E+01  0.1873E+02
 -13.106  0.8543E+01  0.1881E+02
 -13.096  0.8104E+01  0.1889E+02
 -13.086  0.7677E+01  0.1897E+02
 -13.076  0.7262E+01  0.1904E+02
 -13.066  0.6861E+01  0.1911E+02
 -13.056  0.6472E+01  0.1917E+02
 -13.046  0.6097E+01  0.1924E+02
 -13.036  0.5736E+01  0.1929E+02
 -13.026  0.5388E+01  0.1935E+02
 -13.016  0.5055E+01  0.1940E+02
 -13.006  0.4735E+01  0.1944E+02
 -12.996  0.4429E+01  0.1949E+02
 -12.986  0.4137E+01  0.1953E+02
 -12.976  0.3859E+01  0.1957E+02
 -12.966  0.3594E+01  0.1960E+02
 -12.956  0.3342E+01  0.1964E+02
 -12.946  0.3104E+01  0.1967E+02
 -12.936  0.2878E+01  0.1970E+02
 -12.926  0.2664E+01  0.1972E+02
 -12.916  0.2463E+01  0.1975E+02
 -12.906  0.2274E+01  0.1977E+02
 -12.896  0.2096E+01  0.1979E+02
 -12.886  0.1929E+01  0.1981E+02
 -12.876  0.1773E+01  0.1983E+02
 -12.866  0.1627E+01  0.1985E+02
 -12.856  0.1490E+01  0.1986E+02
 -12.846  0.1363E+01  0.1987E+02
 -12.836  0.1245E+01  0.1989E+02
 -12.826  0.1136E+01  0.1990E+02
 -12.816  0.1034E+01  0.1991E+02
 -12.806  0.9403E+00  0.1992E+02
 -12.796  0.8536E+00  0.1993E+02
 -12.786  0.7737E+00  0.1993E+02
 -12.776  0.7002E+00  0.1994E+02
 -12.766  0.6327E+00  0.1995E+02
 -12.756  0.5708E+00  0.1995E+02
 -12.746  0.5141E+00  0.1996E+02
 -12.736  0.4624E+00  0.1996E+02
 -12.726  0.4152E+00  0.1997E+02
 -12.716  0.3722E+00  0.1997E+02
 -12.706  0.3331E+00  0.1997E+02
 -12.696  0.2977E+00  0.1998E+02
 -12.686  0.2656E+00  0.1998E+02
 -12.676  0.2366E+00  0.1998E+02
 -12.666  0.2105E+00  0.1998E+02
 -12.656  0.1869E+00  0.1999E+02
 -12.646  0.1657E+00  0.1999E+02
 -12.636  0.1467E+00  0.1999E+02
 -12.626  0.1296E+00  0.1999E+02
 -12.616  0.1144E+00  0.1999E+02
 -12.606  0.1007E+00  0.1999E+02
 -12.596  0.8860E-01  0.1999E+02
 -12.586  0.7779E-01  0.1999E+02
 -12.576  0.6820E-01  0.2000E+02
 -12.566  0.5969E-01  0.2000E+02
 -12.556  0.5215E-01  0.2000E+02
 -12.546  0.4550E-01  0.2000E+02
 -12.536  0.3962E-01  0.2000E+02
 -12.526  0.3445E-01  0.2000E+02
 -12.516  0.2991E-01  0.2000E+02
 -12.506  0.2592E-01  0.2000E+02
 -12.496  0.2243E-01  0.2000E+02
 -12.486  0.1938E-01  0.2000E+02
 -12.476  0.1671E-01  0.2000E+02
 -12.466  0.1439E-01  0.2000E+02
 -12.456  0.1237E-01  0.2000E+02
 -12.446  0.1061E-01  0.2000E+02
 -12.436  0.9095E-02  0.2000E+02
 -12.426  0.7779E-02  0.2000E+02
 -12.416  0.6643E-02  0.2000E+02
 -12.406  0.5663E-02  0.2000E+02
 -12.396  0.4820E-02  0.2000E+02
 -12.386  0.4096E-02  0.2000E+02
 -12.376  0.3475E-02  0.2000E+02
 -12.366  0.2943E-02  0.2000E+02
 -12.356  0.2488E-02  0.2000E+02
 -12.346  0.2100E-02  0.2000E+02
 -12.336  0.1770E-02  0.2000E+02
 -12.326  0.1489E-02  0.2000E+02
 -12.316  0.1251E-02  0.2000E+02
 -12.306  0.1049E-02  0.2000E+02
 -12.296  0.8777E-03  0.2000E+02
 -12.286  0.7335E-03  0.2000E+02
 -12.276  0.6120E-03  0.2000E+02
 -12.266  0.5097E-03  0.2000E+02
 -12.256  0.4238E-03  0.2000E+02
 -12.246  0.3518E-03  0.2000E+02
 -12.236  0.2916E-03  0.2000E+02
 -12.226  0.2412E-03  0.2000E+02
 -12.216  0.1993E-03  0.2000E+02
 -12.206  0.1643E-03  0.2000E+02
 -12.196  0.1352E-03  0.2000E+02
 -12.186  0.1111E-03  0.2000E+02
 -12.176  0.9119E-04  0.2000E+02
 -12.166  0.7469E-04  0.2000E+02
 -12.156  0.6107E-04  0.2000E+02
 -12.146  0.4985E-04  0.2000E+02
 -12.136  0.4062E-04  0.2000E+02
 -12.126  0.3305E-04  0.2000E+02
 -12.116  0.2684E-04  0.2000E+02
 -12.106  0.2176E-04  0.2000E+02
 -12.096  0.1761E-04  0.2000E+02
 -12.086  0.1423E-04  0.2000E+02
 -12.076  0.1148E-04  0.2000E+02
 -12.066  0.9247E-05  0.2000E+02
 -12.056  0.7435E-05  0.2000E+02
 -12.046  0.5967E-05  0.2000E+02
 -12.036  0.4781E-05  0.2000E+02
 -12.026  0.3824E-05  0.2000E+02
 -12.016  0.3054E-05  0.2000E+02
 -12.006  0.2435E-05  0.2000E+02
 -11.996  0.1938E-05  0.2000E+02
 -11.986  0.1539E-05  0.2000E+02
 -11.976  0.1221E-05  0.2000E+02
 -11.966  0.9668E-06  0.2000E+02
 -11.956  0.7642E-06  0.2000E+02
 -11.946  0.6030E-06  0.2000E+02
 -11.936  0.4751E-06  0.2000E+02
 -11.926  0.3736E-06  0.2000E+02
 -11.916  0.2933E-06  0.2000E+02
 -11.906  0.2299E-06  0.2000E+02
 -11.896  0.1799E-06  0.2000E+02
 -11.886  0.1405E-06  0.2000E+02
 -11.876  0.1096E-06  0.2000E+02
 -11.866  0.8529E-07  0.2000E+02
 -11.856  0.6628E-07  0.2000E+02
 -11.846  0.5142E-07  0.2000E+02
 -11.836  0.3983E-07  0.2000E+02
 -11.826  0.3079E-07  0.2000E+02
 -11.816  0.2377E-07  0.2000E+02
 -11.806  0.1831E-07  0.2000E+02
 -11.796  0.1409E-07  0.2000E+02
 -11.786  0.1082E-07  0.2000E+02
 -11.776  0.8293E-08  0.2000E+02
 -11.766  0.6347E-08  0.2000E+02
 -11.756  0.4849E-08  0.2000E+02
 -11.746  0.3698E-08  0.2000E+02
 -11.736  0.2816E-08  0.2000E+02
 -11.726  0.2140E-08  0.2000E+02
 -11.716  0.1624E-08  0.2000E+02
 -11.706  0.1230E-08  0.2000E+02
 -11.696  0.9303E-09  0.2000E+02
 -11.686  0.7023E-09  0.2000E+02
 -11.676  0.5293E-09  0.2000E+02
 -11.666  0.3982E-09  0.2000E+02
 -11.656  0.2991E-09  0.2000E+02
 -11.646  0.2242E-09  0.2000E+02
 -11.636  0.1678E-09  0.2000E+02
 -11.626  0.1254E-09  0.2000E+02
 -11.616  0.9355E-10  0.2000E+02
 -11.606  0.6966E-10  0.2000E+02
 -11.596  0.5179E-10  0.2000E+02
 -11.586  0.3843E-10  0.2000E+02
 -11.576  0.2847E-10  0.2000E+02
 -11.566  0.2106E-10  0.2000E+02
 -11.556  0.1555E-10  0.2000E+02
 -11.546  0.1146E-10  0.2000E+02
 -11.536  0.8431E-11  0.2000E+02
 -11.526  0.6193E-11  0.2000E+02
 -11.516  0.4541E-11  0.2000E+02
 -11.506  0.3324E-11  0.2000E+02
 -11.496  0.2429E-11  0.2000E+02
 -11.486  0.1772E-11  0.2000E+02
 -11.476  0.1291E-11  0.2000E+02
 -11.466  0.9383E-12  0.2000E+02
 -11.456  0.6810E-12  0.2000E+02
 -11.446  0.4934E-12  0.2000E+02
 -11.436  0.3569E-12  0.2000E+02
 -11.426  0.2577E-12  0.2000E+02
 -11.416  0.1857E-12  0.2000E+02
 -11.406  0.1337E-12  0.2000E+02
 -11.396  0.9601E-13  0.2000E+02
 -11.386  0.6885E-13  0.2000E+02
 -11.376  0.4929E-13  0.2000E+02
 -11.366  0.3523E-13  0.2000E+02
 -11.356  0.2513E-13  0.2000E+02
 -11.346  0.1790E-13  0.2000E+02
 -11.336  0.1273E-13  0.2000E+02
 -11.326  0.9032E-14  0.2000E+02
 -11.316  0.6400E-14  0.2000E+02
 -11.306  0.4527E-14  0.2000E+02
 -11.296  0.3197E-14  0.2000E+02
 -11.286  0.2253E-14  0.2000E+02
 -11.276  0.1586E-14  0.2000E+02
 -11.266  0.1114E-14  0.2000E+02
 -11.256  0.7812E-15  0.2000E+02
 -11.246  0.5469E-15  0.2000E+02
 -11.236  0.3822E-15  0.2000E+02
 -11.226  0.2667E-15  0.2000E+02
 -11.216  0.1857E-15  0.2000E+02
 -11.206  0.1291E-15  0.2000E+02
 -11.196  0.8963E-16  0.2000E+02
 -11.186  0.6211E-16  0.2000E+02
 -11.176  0.4296E-16  0.2000E+02
 -11.166  0.2967E-16  0.2000E+02
 -11.156  0.2045E-16  0.2000E+02
 -11.146  0.1407E-16  0.2000E+02
 -11.136  0.9668E-17  0.2000E+02
 -11.126  0.6630E-17  0.2000E+02
 -11.116  0.4539E-17  0.2000E+02
 -11.106  0.3102E-17  0.2000E+02
 -11.096  0.2117E-17  0.2000E+02
 -11.086  0.1442E-17  0.2000E+02
 -11.076  0.9803E-18  0.2000E+02
 -11.066  0.6654E-18  0.2000E+02
 -11.056  0.4509E-18  0.2000E+02
 -11.046  0.3050E-18  0.2000E+02
 -11.036  0.2059E-18  0.2000E+02
 -11.026  0.1388E-18  0.2000E+02
 -11.016  0.9343E-19  0.2000E+02
 -11.006  0.6276E-19  0.2000E+02
 -10.996  0.4209E-19  0.2000E+02
 -10.986  0.2818E-19  0.2000E+02
 -10.976  0.1883E-19  0.2000E+02
 -10.966  0.1257E-19  0.2000E+02
 -10.956  0.8370E-20  0.2000E+02
 -10.946  0.5565E-20  0.2000E+02
 -10.936  0.3694E-20  0.2000E+02
 -10.926  0.2448E-20  0.2000E+02
 -10.916  0.1619E-20  0.2000E+02
 -10.906  0.1069E-20  0.2000E+02
 -10.896  0.7048E-21  0.2000E+02
 -10.886  0.4638E-21  0.2000E+02
 -10.876  0.3047E-21  0.2000E+02
 -10.866  0.1998E-21  0.2000E+02
 -10.856  0.1308E-21  0.2000E+02
 -10.846  0.8550E-22  0.2000E+02
 -10.836  0.5579E-22  0.2000E+02
 -10.826  0.3633E-22  0.2000E+02
 -10.816  0.2362E-22  0.2000E+02
 -10.806  0.1533E-22  0.2000E+02
 -10.796  0.9936E-23  0.2000E+02
 -10.786  0.6427E-23  0.2000E+02
 -10.776  0.4150E-23  0.2000E+02
 -10.766  0.2675E-23  0.2000E+02
 -10.756  0.1722E-23  0.2000E+02
 -10.746  0.1106E-23  0.2000E+02
 -10.736  0.7093E-24  0.2000E+02
 -10.726  0.4541E-24  0.2000E+02
 -10.716  0.2902E-24  0.2000E+02
 -10.706  0.1852E-24  0.2000E+02
 -10.696  0.1179E-24  0.2000E+02
 -10.686  0.7498E-25  0.2000E+02
 -10.676  0.4759E-25  0.2000E+02
 -10.666  0.3016E-25  0.2000E+02
 -10.656  0.1907E-25  0.2000E+02
 -10.646  0.1204E-25  0.2000E+02
 -10.636  0.7592E-26  0.2000E+02
 -10.626  0.4778E-26  0.2000E+02
 -10.616  0.3001E-26  0.2000E+02
 -10.606  0.1882E-26  0.2000E+02
 -10.596  0.1178E-26  0.2000E+02
 -10.586  0.7364E-27  0.2000E+02
 -10.576  0.4594E-27  0.2000E+02
 -10.566  0.2861E-27  0.2000E+02
 -10.556  0.1779E-27  0.2000E+02
 -10.546  0.1104E-27  0.2000E+02
 -10.536  0.6842E-28  0.2000E+02
 -10.526  0.4232E-28  0.2000E+02
 -10.516  0.2613E-28  0.2000E+02
 -10.506  0.1611E-28  0.2000E+02
 -10.496  0.9912E-29  0.2000E+02
 -10.486  0.6089E-29  0.2000E+02
 -10.476  0.3734E-29  0.2000E+02
 -10.466  0.2286E-29  0.2000E+02
 -10.456  0.1397E-29  0.2000E+02
 -10.446  0.8522E-30  0.2000E+02
 -10.436  0.5190E-30  0.2000E+02
 -10.426  0.3155E-30  0.2000E+02
 -10.416  0.1915E-30  0.2000E+02
 -10.406  0.1160E-30  0.2000E+02
 -10.396  0.7018E-31  0.2000E+02
 -10.386  0.4238E-31  0.2000E+02
 -10.376  0.2554E-31  0.2000E+02
 -10.366  0.1537E-31  0.2000E+02
 -10.356  0.9232E-32  0.2000E+02
 -10.346  0.5536E-32  0.2000E+02
 -10.336  0.3314E-32  0.2000E+02
 -10.326  0.1980E-32  0.2000E+02
 -10.316  0.1181E-32  0.2000E+02
 -10.306  0.7036E-33  0.2000E+02
 -10.296  0.4183E-33  0.2000E+02
 -10.286  0.2483E-33  0.2000E+02
 -10.276  0.1471E-33  0.2000E+02
 -10.266  0.8699E-34  0.2000E+02
 -10.256  0.5136E-34  0.2000E+02
 -10.246  0.3027E-34  0.2000E+02
 -10.236  0.1781E-34  0.2000E+02
 -10.226  0.1046E-34  0.2000E+02
 -10.216  0.6135E-35  0.2000E+02
 -10.206  0.3591E-35  0.2000E+02
 -10.196  0.2099E-35  0.2000E+02
 -10.186  0.1224E-35  0.2000E+02
 -10.176  0.7130E-36  0.2000E+02
 -10.166  0.4145E-36  0.2000E+02
 -10.156  0.2405E-36  0.2000E+02
 -10.146  0.1394E-36  0.2000E+02
 -10.136  0.8059E-37  0.2000E+02
 -10.126  0.4653E-37  0.2000E+02
 -10.116  0.2682E-37  0.2000E+02
 -10.106  0.1543E-37  0.2000E+02
 -10.096  0.8863E-38  0.2000E+02
 -10.086  0.5082E-38  0.2000E+02
 -10.076  0.2909E-38  0.2000E+02
 -10.066  0.1662E-38  0.2000E+02
 -10.056  0.9481E-39  0.2000E+02
 -10.046  0.5399E-39  0.2000E+02
 -10.036  0.3069E-39  0.2000E+02
 -10.026  0.1742E-39  0.2000E+02
 -10.016  0.9867E-40  0.2000E+02
 -10.006  0.5580E-40  0.2000E+02
  -9.996  0.3150E-40  0.2000E+02
  -9.986  0.1776E-40  0.2000E+02
  -9.976  0.9989E-41  0.2000E+02
  -9.966  0.5611E-41  0.2000E+02
  -9.956  0.3146E-41  0.2000E+02
  -9.946  0.1761E-41  0.2000E+02
  -9.936  0.9838E-42  0.2000E+02
  -9.926  0.5488E-42  0.2000E+02
  -9.916  0.3056E-42  0.2000E+02
  -9.906  0.1699E-42  0.2000E+02
  -9.896  0.9425E-43  0.2000E+02
  -9.886  0.5221E-43  0.2000E+02
  -9.876  0.2887E-43  0.2000E+02
  -9.866  0.1594E-43  0.2000E+02
  -9.856  0.8785E-44  0.2000E+02
  -9.846  0.4833E-44  0.2000E+02
  -9.836  0.2654E-44  0.2000E+02
  -9.826  0.1455E-44  0.2000E+02
  -9.816  0.7965E-45  0.2000E+02
  -9.806  0.4352E-45  0.2000E+02
  -9.796  0.2374E-45  0.2000E+02
  -9.786  0.1292E-45  0.2000E+02
  -9.776  0.7025E-46  0.2000E+02
  -9.766  0.3812E-46  0.2000E+02
  -9.756  0.2065E-46  0.2000E+02
  -9.746  0.1117E-46  0.2000E+02
  -9.736  0.6027E-47  0.2000E+02
  -9.726  0.3248E-47  0.2000E+02
  -9.716  0.1747E-47  0.2000E+02
  -9.706  0.9383E-48  0.2000E+02
  -9.696  0.5031E-48  0.2000E+02
  -9.686  0.2692E-48  0.2000E+02
  -9.676  0.1438E-48  0.2000E+02
  -9.666  0.7672E-49  0.2000E+02
  -9.656  0.4085E-49  0.2000E+02
  -9.646  0.2171E-49  0.2000E+02
  -9.636  0.1152E-49  0.2000E+02
  -9.626  0.6101E-50  0.2000E+02
  -9.616  0.3226E-50  0.2000E+02
  -9.606  0.1703E-50  0.2000E+02
  -9.596  0.8974E-51  0.2000E+02
  -9.586  0.4721E-51  0.2000E+02
  -9.576  0.2479E-51  0.2000E+02
  -9.566  0.1300E-51  0.2000E+02
  -9.556  0.6801E-52  0.2000E+02
  -9.546  0.3553E-52  0.2000E+02
  -9.536  0.1853E-52  0.2000E+02
  -9.526  0.9647E-53  0.2000E+02
  -9.516  0.5014E-53  0.2000E+02
  -9.506  0.2601E-53  0.2000E+02
  -9.496  0.1347E-53  0.2000E+02
  -9.486  0.6966E-54  0.2000E+02
  -9.476  0.3596E-54  0.2000E+02
  -9.466  0.1853E-54  0.2000E+02
  -9.456  0.9530E-55  0.2000E+02
  -9.446  0.4894E-55  0.2000E+02
  -9.436  0.2508E-55  0.2000E+02
  -9.426  0.1284E-55  0.2000E+02
  -9.416  0.6557E-56  0.2000E+02
  -9.406  0.3344E-56  0.2000E+02
  -9.396  0.1702E-56  0.2000E+02
  -9.386  0.8652E-57  0.2000E+02
  -9.376  0.4389E-57  0.2000E+02
  -9.366  0.2223E-57  0.2000E+02
  -9.356  0.1124E-57  0.2000E+02
  -9.346  0.5673E-58  0.2000E+02
  -9.336  0.2858E-58  0.2000E+02
  -9.326  0.1438E-58  0.2000E+02
  -9.316  0.7218E-59  0.2000E+02
  -9.306  0.3618E-59  0.2000E+02
  -9.296  0.1810E-59  0.2000E+02
  -9.286  0.9044E-60  0.2000E+02
  -9.276  0.4510E-60  0.2000E+02
  -9.266  0.2245E-60  0.2000E+02
  -9.256  0.1116E-60  0.2000E+02
  -9.246  0.5534E-61  0.2000E+02
  -9.236  0.2741E-61  0.2000E+02
  -9.226  0.1355E-61  0.2000E+02
  -9.216  0.6687E-62  0.2000E+02
  -9.206  0.3295E-62  0.2000E+02
  -9.196  0.1620E-62  0.2000E+02
  -9.186  0.7956E-63  0.2000E+02
  -9.176  0.3899E-63  0.2000E+02
  -9.166  0.1908E-63  0.2000E+02
  -9.156  0.9319E-64  0.2000E+02
  -9.146  0.4544E-64  0.2000E+02
  -9.136  0.2212E-64  0.2000E+02
  -9.126  0.1075E-64  0.2000E+02
  -9.116  0.5214E-65  0.2000E+02
  -9.106  0.2525E-65  0.2000E+02
  -9.096  0.1221E-65  0.2000E+02
  -9.086  0.5890E-66  0.2000E+02
  -9.076  0.2838E-66  0.2000E+02
  -9.066  0.1365E-66  0.2000E+02
  -9.056  0.6552E-67  0.2000E+02
  -9.046  0.3140E-67  0.2000E+02
  -9.036  0.1502E-67  0.2000E+02
  -9.026  0.7175E-68  0.2000E+02
  -9.016  0.3421E-68  0.2000E+02
  -9.006  0.1628E-68  0.2000E+02
  -8.996  0.7737E-69  0.2000E+02
  -8.986  0.3670E-69  0.2000E+02
  -8.976  0.1738E-69  0.2000E+02
  -8.966  0.8215E-70  0.2000E+02
  -8.956  0.3876E-70  0.2000E+02
  -8.946  0.1826E-70  0.2000E+02
  -8.936  0.8587E-71  0.2000E+02
  -8.926  0.4031E-71  0.2000E+02
  -8.916  0.1889E-71  0.2000E+02
  -8.906  0.8839E-72  0.2000E+02
  -8.896  0.4128E-72  0.2000E+02
  -8.886  0.1924E-72  0.2000E+02
  -8.876  0.8957E-73  0.2000E+02
  -8.866  0.4162E-73  0.2000E+02
  -8.856  0.1930E-73  0.2000E+02
  -8.846  0.8937E-74  0.2000E+02
  -8.836  0.4131E-74  0.2000E+02
