#  E (eV)   dos(E)     Int dos(E) EFermi =   7.985 eV
 -15.070  0.5423E-03  0.5423E-05
 -15.060  0.6310E-03  0.1173E-04
 -15.050  0.7332E-03  0.1907E-04
 -15.040  0.8511E-03  0.2758E-04
 -15.030  0.9867E-03  0.3744E-04
 -15.020  0.1143E-02  0.4887E-04
 -15.010  0.1322E-02  0.6208E-04
 -15.000  0.1527E-02  0.7735E-04
 -14.990  0.1762E-02  0.9498E-04
 -14.980  0.2031E-02  0.1153E-03
 -14.970  0.2338E-02  0.1387E-03
 -14.960  0.2689E-02  0.1656E-03
 -14.950  0.3089E-02  0.1965E-03
 -14.940  0.3544E-02  0.2319E-03
 -14.930  0.4062E-02  0.2725E-03
 -14.920  0.4650E-02  0.3190E-03
 -14.910  0.5317E-02  0.3722E-03
 -14.900  0.6072E-02  0.4329E-03
 -14.890  0.6927E-02  0.5022E-03
 -14.880  0.7893E-02  0.5811E-03
 -14.870  0.8983E-02  0.6709E-03
 -14.860  0.1021E-01  0.7731E-03
 -14.850  0.1160E-01  0.8890E-03
 -14.840  0.1315E-01  0.1021E-02
 -14.830  0.1490E-01  0.1170E-02
 -14.820  0.1687E-01  0.1338E-02
 -14.810  0.1906E-01  0.1529E-02
 -14.800  0.2153E-01  0.1744E-02
 -14.790  0.2428E-01  0.1987E-02
 -14.780  0.2735E-01  0.2260E-02
 -14.770  0.3077E-01  0.2568E-02
 -14.760  0.3459E-01  0.2914E-02
 -14.750  0.3883E-01  0.3302E-02
 -14.740  0.4355E-01  0.3738E-02
 -14.730  0.4878E-01  0.4226E-02
 -14.720  0.5458E-01  0.4771E-02
 -14.710  0.6100E-01  0.5382E-02
 -14.700  0.6810E-01  0.6063E-02
 -14.690  0.7594E-01  0.6822E-02
 -14.680  0.8459E-01  0.7668E-02
 -14.670  0.9412E-01  0.8609E-02
 -14.660  0.1046E+00  0.9655E-02
 -14.650  0.1161E+00  0.1082E-01
 -14.640  0.1288E+00  0.1210E-01
 -14.630  0.1426E+00  0.1353E-01
 -14.620  0.1578E+00  0.1511E-01
 -14.610  0.1744E+00  0.1685E-01
 -14.600  0.1926E+00  0.1878E-01
 -14.590  0.2123E+00  0.2090E-01
 -14.580  0.2339E+00  0.2324E-01
 -14.570  0.2574E+00  0.2581E-01
 -14.560  0.2829E+00  0.2864E-01
 -14.550  0.3106E+00  0.3175E-01
 -14.540  0.3406E+00  0.3515E-01
 -14.530  0.3731E+00  0.3889E-01
 -14.520  0.4083E+00  0.4297E-01
 -14.510  0.4463E+00  0.4743E-01
 -14.500  0.4874E+00  0.5231E-01
 -14.490  0.5316E+00  0.5762E-01
 -14.480  0.5792E+00  0.6341E-01
 -14.470  0.6304E+00  0.6972E-01
 -14.460  0.6853E+00  0.7657E-01
 -14.450  0.7443E+00  0.8401E-01
 -14.440  0.8074E+00  0.9209E-01
 -14.430  0.8750E+00  0.1008E+00
 -14.420  0.9473E+00  0.1103E+00
 -14.410  0.1024E+01  0.1206E+00
 -14.400  0.1107E+01  0.1316E+00
 -14.390  0.1194E+01  0.1436E+00
 -14.380  0.1287E+01  0.1564E+00
 -14.370  0.1386E+01  0.1703E+00
 -14.360  0.1491E+01  0.1852E+00
 -14.350  0.1602E+01  0.2012E+00
 -14.340  0.1720E+01  0.2184E+00
 -14.330  0.1844E+01  0.2369E+00
 -14.320  0.1975E+01  0.2566E+00
 -14.310  0.2114E+01  0.2777E+00
 -14.300  0.2260E+01  0.3003E+00
 -14.290  0.2413E+01  0.3245E+00
 -14.280  0.2574E+01  0.3502E+00
 -14.270  0.2743E+01  0.3776E+00
 -14.260  0.2920E+01  0.4068E+00
 -14.250  0.3106E+01  0.4379E+00
 -14.240  0.3300E+01  0.4709E+00
 -14.230  0.3502E+01  0.5059E+00
 -14.220  0.3713E+01  0.5431E+00
 -14.210  0.3933E+01  0.5824E+00
 -14.200  0.4162E+01  0.6240E+00
 -14.190  0.4400E+01  0.6680E+00
 -14.180  0.4647E+01  0.7145E+00
 -14.170  0.4902E+01  0.7635E+00
 -14.160  0.5167E+01  0.8152E+00
 -14.150  0.5441E+01  0.8696E+00
 -14.140  0.5724E+01  0.9268E+00
 -14.130  0.6015E+01  0.9870E+00
 -14.120  0.6315E+01  0.1050E+01
 -14.110  0.6624E+01  0.1116E+01
 -14.100  0.6941E+01  0.1186E+01
 -14.090  0.7267E+01  0.1258E+01
 -14.080  0.7600E+01  0.1334E+01
 -14.070  0.7941E+01  0.1414E+01
 -14.060  0.8290E+01  0.1497E+01
 -14.050  0.8646E+01  0.1583E+01
 -14.040  0.9009E+01  0.1673E+01
 -14.030  0.9378E+01  0.1767E+01
 -14.020  0.9754E+01  0.1865E+01
 -14.010  0.1013E+02  0.1966E+01
 -14.000  0.1052E+02  0.2071E+01
 -13.990  0.1091E+02  0.2180E+01
 -13.980  0.1131E+02  0.2293E+01
 -13.970  0.1171E+02  0.2410E+01
 -13.960  0.1211E+02  0.2532E+01
 -13.950  0.1251E+02  0.2657E+01
 -13.940  0.1292E+02  0.2786E+01
 -13.930  0.1333E+02  0.2919E+01
 -13.920  0.1374E+02  0.3057E+01
 -13.910  0.1415E+02  0.3198E+01
 -13.900  0.1455E+02  0.3344E+01
 -13.890  0.1496E+02  0.3493E+01
 -13.880  0.1537E+02  0.3647E+01
 -13.870  0.1577E+02  0.3805E+01
 -13.860  0.1617E+02  0.3966E+01
 -13.850  0.1656E+02  0.4132E+01
 -13.840  0.1695E+02  0.4301E+01
 -13.830  0.1734E+02  0.4475E+01
 -13.820  0.1772E+02  0.4652E+01
 -13.810  0.1809E+02  0.4833E+01
 -13.800  0.1845E+02  0.5017E+01
 -13.790  0.1880E+02  0.5205E+01
 -13.780  0.1915E+02  0.5397E+01
 -13.770  0.1949E+02  0.5592E+01
 -13.760  0.1981E+02  0.5790E+01
 -13.750  0.2012E+02  0.5991E+01
 -13.740  0.2043E+02  0.6195E+01
 -13.730  0.2072E+02  0.6402E+01
 -13.720  0.2099E+02  0.6612E+01
 -13.710  0.2125E+02  0.6825E+01
 -13.700  0.2150E+02  0.7040E+01
 -13.690  0.2174E+02  0.7257E+01
 -13.680  0.2195E+02  0.7477E+01
 -13.670  0.2215E+02  0.7698E+01
 -13.660  0.2234E+02  0.7922E+01
 -13.650  0.2251E+02  0.8147E+01
 -13.640  0.2266E+02  0.8373E+01
 -13.630  0.2279E+02  0.8601E+01
 -13.620  0.2291E+02  0.8830E+01
 -13.610  0.2301E+02  0.9061E+01
 -13.600  0.2309E+02  0.9291E+01
 -13.590  0.2315E+02  0.9523E+01
 -13.580  0.2319E+02  0.9755E+01
 -13.570  0.2322E+02  0.9987E+01
 -13.560  0.2322E+02  0.1022E+02
 -13.550  0.2321E+02  0.1045E+02
 -13.540  0.2318E+02  0.1068E+02
 -13.530  0.2312E+02  0.1091E+02
 -13.520  0.2305E+02  0.1114E+02
 -13.510  0.2297E+02  0.1137E+02
 -13.500  0.2286E+02  0.1160E+02
 -13.490  0.2273E+02  0.1183E+02
 -13.480  0.2259E+02  0.1206E+02
 -13.470  0.2243E+02  0.1228E+02
 -13.460  0.2225E+02  0.1250E+02
 -13.450  0.2206E+02  0.1272E+02
 -13.440  0.2185E+02  0.1294E+02
 -13.430  0.2162E+02  0.1316E+02
 -13.420  0.2138E+02  0.1337E+02
 -13.410  0.2112E+02  0.1358E+02
 -13.400  0.2085E+02  0.1379E+02
 -13.390  0.2056E+02  0.1400E+02
 -13.380  0.2026E+02  0.1420E+02
 -13.370  0.1995E+02  0.1440E+02
 -13.360  0.1963E+02  0.1460E+02
 -13.350  0.1929E+02  0.1479E+02
 -13.340  0.1895E+02  0.1498E+02
 -13.330  0.1859E+02  0.1516E+02
 -13.320  0.1823E+02  0.1535E+02
 -13.310  0.1786E+02  0.1553E+02
 -13.300  0.1748E+02  0.1570E+02
 -13.290  0.1709E+02  0.1587E+02
 -13.280  0.1669E+02  0.1604E+02
 -13.270  0.1630E+02  0.1620E+02
 -13.260  0.1589E+02  0.1636E+02
 -13.250  0.1549E+02  0.1651E+02
 -13.240  0.1508E+02  0.1667E+02
 -13.230  0.1466E+02  0.1681E+02
 -13.220  0.1425E+02  0.1695E+02
 -13.210  0.1383E+02  0.1709E+02
 -13.200  0.1342E+02  0.1723E+02
 -13.190  0.1300E+02  0.1736E+02
 -13.180  0.1259E+02  0.1748E+02
 -13.170  0.1218E+02  0.1760E+02
 -13.160  0.1177E+02  0.1772E+02
 -13.150  0.1136E+02  0.1784E+02
 -13.140  0.1096E+02  0.1795E+02
 -13.130  0.1056E+02  0.1805E+02
 -13.120  0.1017E+02  0.1815E+02
 -13.110  0.9783E+01  0.1825E+02
 -13.100  0.9401E+01  0.1834E+02
 -13.090  0.9026E+01  0.1844E+02
 -13.080  0.8657E+01  0.1852E+02
 -13.070  0.8295E+01  0.1860E+02
 -13.060  0.7941E+01  0.1868E+02
 -13.050  0.7595E+01  0.1876E+02
 -13.040  0.7256E+01  0.1883E+02
 -13.030  0.6926E+01  0.1890E+02
 -13.020  0.6604E+01  0.1897E+02
 -13.010  0.6292E+01  0.1903E+02
 -13.000  0.5988E+01  0.1909E+02
 -12.990  0.5693E+01  0.1915E+02
 -12.980  0.5407E+01  0.1920E+02
 -12.970  0.5130E+01  0.1925E+02
 -12.960  0.4863E+01  0.1930E+02
 -12.950  0.4605E+01  0.1935E+02
 -12.940  0.4356E+01  0.1939E+02
 -12.930  0.4117E+01  0.1943E+02
 -12.920  0.3887E+01  0.1947E+02
 -12.910  0.3666E+01  0.1951E+02
 -12.900  0.3454E+01  0.1954E+02
 -12.890  0.3250E+01  0.1957E+02
 -12.880  0.3056E+01  0.1961E+02
 -12.870  0.2870E+01  0.1963E+02
 -12.860  0.2693E+01  0.1966E+02
 -12.850  0.2524E+01  0.1969E+02
 -12.840  0.2364E+01  0.1971E+02
 -12.830  0.2211E+01  0.1973E+02
 -12.820  0.2066E+01  0.1975E+02
 -12.810  0.1928E+01  0.1977E+02
 -12.800  0.1798E+01  0.1979E+02
 -12.790  0.1675E+01  0.1981E+02
 -12.780  0.1558E+01  0.1982E+02
 -12.770  0.1448E+01  0.1984E+02
 -12.760  0.1345E+01  0.1985E+02
 -12.750  0.1247E+01  0.1986E+02
 -12.740  0.1156E+01  0.1987E+02
 -12.730  0.1070E+01  0.1989E+02
 -12.720  0.9889E+00  0.1989E+02
 -12.710  0.9133E+00  0.1990E+02
 -12.700  0.8426E+00  0.1991E+02
 -12.690  0.7765E+00  0.1992E+02
 -12.680  0.7148E+00  0.1993E+02
 -12.670  0.6573E+00  0.1993E+02
 -12.660  0.6038E+00  0.1994E+02
 -12.650  0.5540E+00  0.1995E+02
 -12.640  0.5078E+00  0.1995E+02
 -12.630  0.4649E+00  0.1996E+02
 -12.620  0.4252E+00  0.1996E+02
 -12.610  0.3885E+00  0.1996E+02
 -12.600  0.3545E+00  0.1997E+02
 -12.590  0.3232E+00  0.1997E+02
 -12.580  0.2943E+00  0.1997E+02
 -12.570  0.2677E+00  0.1998E+02
 -12.560  0.2432E+00  0.1998E+02
 -12.550  0.2207E+00  0.1998E+02
 -12.540  0.2001E+00  0.1998E+02
 -12.530  0.1812E+00  0.1998E+02
 -12.520  0.1639E+00  0.1999E+02
 -12.510  0.1481E+00  0.1999E+02
 -12.500  0.1337E+00  0.1999E+02
 -12.490  0.1205E+00  0.1999E+02
 -12.480  0.1085E+00  0.1999E+02
 -12.470  0.9762E-01  0.1999E+02
 -12.460  0.8772E-01  0.1999E+02
 -12.450  0.7873E-01  0.1999E+02
 -12.440  0.7058E-01  0.1999E+02
 -12.430  0.6321E-01  0.2000E+02
 -12.420  0.5654E-01  0.2000E+02
 -12.410  0.5052E-01  0.2000E+02
 -12.400  0.4509E-01  0.2000E+02
 -12.390  0.4020E-01  0.2000E+02
 -12.380  0.3579E-01  0.2000E+02
 -12.370  0.3184E-01  0.2000E+02
 -12.360  0.2829E-01  0.2000E+02
 -12.350  0.2510E-01  0.2000E+02
 -12.340  0.2225E-01  0.2000E+02
 -12.330  0.1971E-01  0.2000E+02
 -12.320  0.1743E-01  0.2000E+02
 -12.310  0.1540E-01  0.2000E+02
 -12.300  0.1359E-01  0.2000E+02
 -12.290  0.1198E-01  0.2000E+02
 -12.280  0.1054E-01  0.2000E+02
 -12.270  0.9273E-02  0.2000E+02
 -12.260  0.8146E-02  0.2000E+02
 -12.250  0.7147E-02  0.2000E+02
 -12.240  0.6264E-02  0.2000E+02
 -12.230  0.5484E-02  0.2000E+02
 -12.220  0.4795E-02  0.2000E+02
 -12.210  0.4188E-02  0.2000E+02
 -12.200  0.3654E-02  0.2000E+02
 -12.190  0.3184E-02  0.2000E+02
 -12.180  0.2771E-02  0.2000E+02
 -12.170  0.2409E-02  0.2000E+02
 -12.160  0.2092E-02  0.2000E+02
 -12.150  0.1815E-02  0.2000E+02
 -12.140  0.1572E-02  0.2000E+02
 -12.130  0.1361E-02  0.2000E+02
 -12.120  0.1176E-02  0.2000E+02
 -12.110  0.1016E-02  0.2000E+02
 -12.100  0.8759E-03  0.2000E+02
 -12.090  0.7545E-03  0.2000E+02
 -12.080  0.6492E-03  0.2000E+02
 -12.070  0.5580E-03  0.2000E+02
 -12.060  0.4790E-03  0.2000E+02
 -12.050  0.4107E-03  0.2000E+02
 -12.040  0.3517E-03  0.2000E+02
 -12.030  0.3009E-03  0.2000E+02
 -12.020  0.2571E-03  0.2000E+02
 -12.010  0.2194E-03  0.2000E+02
 -12.000  0.1871E-03  0.2000E+02
 -11.990  0.1593E-03  0.2000E+02
 -11.980  0.1355E-03  0.2000E+02
 -11.970  0.1151E-03  0.2000E+02
 -11.960  0.9765E-04  0.2000E+02
 -11.950  0.8276E-04  0.2000E+02
 -11.940  0.7006E-04  0.2000E+02
 -11.930  0.5924E-04  0.2000E+02
 -11.920  0.5003E-04  0.2000E+02
 -11.910  0.4221E-04  0.2000E+02
 -11.900  0.3556E-04  0.2000E+02
 -11.890  0.2993E-04  0.2000E+02
 -11.880  0.2516E-04  0.2000E+02
 -11.870  0.2113E-04  0.2000E+02
 -11.860  0.1772E-04  0.2000E+02
 -11.850  0.1484E-04  0.2000E+02
 -11.840  0.1242E-04  0.2000E+02
 -11.830  0.1038E-04  0.2000E+02
 -11.820  0.8664E-05  0.2000E+02
 -11.810  0.7224E-05  0.2000E+02
 -11.800  0.6016E-05  0.2000E+02
 -11.790  0.5005E-05  0.2000E+02
 -11.780  0.4158E-05  0.2000E+02
 -11.770  0.3451E-05  0.2000E+02
 -11.760  0.2860E-05  0.2000E+02
 -11.750  0.2368E-05  0.2000E+02
 -11.740  0.1958E-05  0.2000E+02
 -11.730  0.1618E-05  0.2000E+02
 -11.720  0.1335E-05  0.2000E+02
 -11.710  0.1100E-05  0.2000E+02
 -11.700  0.9052E-06  0.2000E+02
 -11.690  0.7441E-06  0.2000E+02
 -11.680  0.6110E-06  0.2000E+02
 -11.670  0.5012E-06  0.2000E+02
 -11.660  0.4106E-06  0.2000E+02
 -11.650  0.3359E-06  0.2000E+02
 -11.640  0.2746E-06  0.2000E+02
 -11.630  0.2241E-06  0.2000E+02
 -11.620  0.1828E-06  0.2000E+02
 -11.610  0.1488E-06  0.2000E+02
 -11.600  0.1211E-06  0.2000E+02
 -11.590  0.9837E-07  0.2000E+02
 -11.580  0.7983E-07  0.2000E+02
 -11.570  0.6471E-07  0.2000E+02
 -11.560  0.5239E-07  0.2000E+02
 -11.550  0.4236E-07  0.2000E+02
 -11.540  0.3422E-07  0.2000E+02
 -11.530  0.2760E-07  0.2000E+02
 -11.520  0.2224E-07  0.2000E+02
 -11.510  0.1790E-07  0.2000E+02
 -11.500  0.1439E-07  0.2000E+02
 -11.490  0.1156E-07  0.2000E+02
 -11.480  0.9268E-08  0.2000E+02
 -11.470  0.7424E-08  0.2000E+02
 -11.460  0.5940E-08  0.2000E+02
 -11.450  0.4747E-08  0.2000E+02
 -11.440  0.3789E-08  0.2000E+02
 -11.430  0.3021E-08  0.2000E+02
 -11.420  0.2406E-08  0.2000E+02
 -11.410  0.1913E-08  0.2000E+02
 -11.400  0.1520E-08  0.2000E+02
 -11.390  0.1206E-08  0.2000E+02
 -11.380  0.9560E-09  0.2000E+02
 -11.370  0.7568E-09  0.2000E+02
 -11.360  0.5984E-09  0.2000E+02
 -11.350  0.4726E-09  0.2000E+02
 -11.340  0.3728E-09  0.2000E+02
 -11.330  0.2937E-09  0.2000E+02
 -11.320  0.2311E-09  0.2000E+02
 -11.310  0.1817E-09  0.2000E+02
 -11.300  0.1426E-09  0.2000E+02
 -11.290  0.1118E-09  0.2000E+02
 -11.280  0.8760E-10  0.2000E+02
 -11.270  0.6853E-10  0.2000E+02
 -11.260  0.5354E-10  0.2000E+02
 -11.250  0.4179E-10  0.2000E+02
 -11.240  0.3257E-10  0.2000E+02
 -11.230  0.2536E-10  0.2000E+02
 -11.220  0.1972E-10  0.2000E+02
 -11.210  0.1532E-10  0.2000E+02
 -11.200  0.1189E-10  0.2000E+02
 -11.190  0.9210E-11  0.2000E+02
 -11.180  0.7128E-11  0.2000E+02
 -11.170  0.5511E-11  0.2000E+02
 -11.160  0.4255E-11  0.2000E+02
 -11.150  0.3282E-11  0.2000E+02
 -11.140  0.2528E-11  0.2000E+02
 -11.130  0.1945E-11  0.2000E+02
 -11.120  0.1495E-11  0.2000E+02
 -11.110  0.1147E-11  0.2000E+02
 -11.100  0.8795E-12  0.2000E+02
 -11.090  0.6735E-12  0.2000E+02
 -11.080  0.5151E-12  0.2000E+02
 -11.070  0.3935E-12  0.2000E+02
 -11.060  0.3002E-12  0.2000E+02
 -11.050  0.2288E-12  0.2000E+02
 -11.040  0.1742E-12  0.2000E+02
 -11.030  0.1324E-12  0.2000E+02
 -11.020  0.1006E-12  0.2000E+02
 -11.010  0.7628E-13  0.2000E+02
 -11.000  0.5779E-13  0.2000E+02
 -10.990  0.4373E-13  0.2000E+02
 -10.980  0.3305E-13  0.2000E+02
 -10.970  0.2495E-13  0.2000E+02
 -10.960  0.1881E-13  0.2000E+02
 -10.950  0.1417E-13  0.2000E+02
 -10.940  0.1066E-13  0.2000E+02
 -10.930  0.8005E-14  0.2000E+02
 -10.920  0.6007E-14  0.2000E+02
 -10.910  0.4503E-14  0.2000E+02
 -10.900  0.3371E-14  0.2000E+02
 -10.890  0.2520E-14  0.2000E+02
 -10.880  0.1882E-14  0.2000E+02
 -10.870  0.1404E-14  0.2000E+02
 -10.860  0.1046E-14  0.2000E+02
 -10.850  0.7785E-15  0.2000E+02
 -10.840  0.5787E-15  0.2000E+02
 -10.830  0.4296E-15  0.2000E+02
 -10.820  0.3186E-15  0.2000E+02
 -10.810  0.2359E-15  0.2000E+02
 -10.800  0.1745E-15  0.2000E+02
 -10.790  0.1290E-15  0.2000E+02
 -10.780  0.9517E-16  0.2000E+02
 -10.770  0.7015E-16  0.2000E+02
 -10.760  0.5165E-16  0.2000E+02
 -10.750  0.3798E-16  0.2000E+02
 -10.740  0.2789E-16  0.2000E+02
 -10.730  0.2046E-16  0.2000E+02
 -10.720  0.1499E-16  0.2000E+02
 -10.710  0.1097E-16  0.2000E+02
 -10.700  0.8021E-17  0.2000E+02
 -10.690  0.5856E-17  0.2000E+02
 -10.680  0.4271E-17  0.2000E+02
 -10.670  0.3111E-17  0.2000E+02
 -10.660  0.2263E-17  0.2000E+02
 -10.650  0.1644E-17  0.2000E+02
 -10.640  0.1193E-17  0.2000E+02
 -10.630  0.8651E-18  0.2000E+02
 -10.620  0.6264E-18  0.2000E+02
 -10.610  0.4530E-18  0.2000E+02
 -10.600  0.3272E-18  0.2000E+02
 -10.590  0.2361E-18  0.2000E+02
 -10.580  0.1701E-18  0.2000E+02
 -10.570  0.1224E-18  0.2000E+02
 -10.560  0.8801E-19  0.2000E+02
 -10.550  0.6319E-19  0.2000E+02
 -10.540  0.4532E-19  0.2000E+02
 -10.530  0.3246E-19  0.2000E+02
 -10.520  0.2322E-19  0.2000E+02
 -10.510  0.1660E-19  0.2000E+02
 -10.500  0.1185E-19  0.2000E+02
 -10.490  0.8444E-20  0.2000E+02
 -10.480  0.6013E-20  0.2000E+02
 -10.470  0.4276E-20  0.2000E+02
 -10.460  0.3037E-20  0.2000E+02
 -10.450  0.2155E-20  0.2000E+02
 -10.440  0.1527E-20  0.2000E+02
 -10.430  0.1081E-20  0.2000E+02
 -10.420  0.7642E-21  0.2000E+02
 -10.410  0.5396E-21  0.2000E+02
 -10.400  0.3805E-21  0.2000E+02
 -10.390  0.2681E-21  0.2000E+02
 -10.380  0.1886E-21  0.2000E+02
 -10.370  0.1325E-21  0.2000E+02
 -10.360  0.9303E-22  0.2000E+02
 -10.350  0.6522E-22  0.2000E+02
 -10.340  0.4567E-22  0.2000E+02
 -10.330  0.3194E-22  0.2000E+02
 -10.320  0.2231E-22  0.2000E+02
 -10.310  0.1557E-22  0.2000E+02
 -10.300  0.1085E-22  0.2000E+02
 -10.290  0.7552E-23  0.2000E+02
 -10.280  0.5250E-23  0.2000E+02
 -10.270  0.3646E-23  0.2000E+02
 -10.260  0.2529E-23  0.2000E+02
 -10.250  0.1752E-23  0.2000E+02
 -10.240  0.1212E-23  0.2000E+02
 -10.230  0.8376E-24  0.2000E+02
 -10.220  0.5781E-24  0.2000E+02
 -10.210  0.3986E-24  0.2000E+02
 -10.200  0.2745E-24  0.2000E+02
 -10.190  0.1888E-24  0.2000E+02
 -10.180  0.1297E-24  0.2000E+02
 -10.170  0.8898E-25  0.2000E+02
 -10.160  0.6098E-25  0.2000E+02
 -10.150  0.4174E-25  0.2000E+02
 -10.140  0.2854E-25  0.2000E+02
 -10.130  0.1949E-25  0.2000E+02
 -10.120  0.1329E-25  0.2000E+02
 -10.110  0.9055E-26  0.2000E+02
 -10.100  0.6161E-26  0.2000E+02
 -10.090  0.4187E-26  0.2000E+02
 -10.080  0.2842E-26  0.2000E+02
 -10.070  0.1927E-26  0.2000E+02
 -10.060  0.1305E-26  0.2000E+02
 -10.050  0.8826E-27  0.2000E+02
 -10.040  0.5963E-27  0.2000E+02
 -10.030  0.4023E-27  0.2000E+02
 -10.020  0.2712E-27  0.2000E+02
 -10.010  0.1825E-27  0.2000E+02
 -10.000  0.1227E-27  0.2000E+02
  -9.990  0.8241E-28  0.2000E+02
  -9.980  0.5527E-28  0.2000E+02
  -9.970  0.3703E-28  0.2000E+02
  -9.960  0.2478E-28  0.2000E+02
  -9.950  0.1656E-28  0.2000E+02
  -9.940  0.1105E-28  0.2000E+02
  -9.930  0.7370E-29  0.2000E+02
  -9.920  0.4908E-29  0.2000E+02
  -9.910  0.3265E-29  0.2000E+02
  -9.900  0.2169E-29  0.2000E+02
  -9.890  0.1439E-29  0.2000E+02
  -9.880  0.9538E-30  0.2000E+02
  -9.870  0.6314E-30  0.2000E+02
  -9.860  0.4174E-30  0.2000E+02
  -9.850  0.2757E-30  0.2000E+02
  -9.840  0.1818E-30  0.2000E+02
  -9.830  0.1198E-30  0.2000E+02
  -9.820  0.7882E-31  0.2000E+02
  -9.810  0.5180E-31  0.2000E+02
  -9.800  0.3401E-31  0.2000E+02
  -9.790  0.2230E-31  0.2000E+02
  -9.780  0.1460E-31  0.2000E+02
  -9.770  0.9551E-32  0.2000E+02
  -9.760  0.6240E-32  0.2000E+02
  -9.750  0.4072E-32  0.2000E+02
  -9.740  0.2654E-32  0.2000E+02
  -9.730  0.1727E-32  0.2000E+02
  -9.720  0.1123E-32  0.2000E+02
  -9.710  0.7294E-33  0.2000E+02
  -9.700  0.4731E-33  0.2000E+02
  -9.690  0.3065E-33  0.2000E+02
  -9.680  0.1983E-33  0.2000E+02
  -9.670  0.1282E-33  0.2000E+02
  -9.660  0.8275E-34  0.2000E+02
  -9.650  0.5335E-34  0.2000E+02
  -9.640  0.3436E-34  0.2000E+02
  -9.630  0.2210E-34  0.2000E+02
  -9.620  0.1420E-34  0.2000E+02
  -9.610  0.9111E-35  0.2000E+02
  -9.600  0.5840E-35  0.2000E+02
  -9.590  0.3738E-35  0.2000E+02
  -9.580  0.2390E-35  0.2000E+02
  -9.570  0.1526E-35  0.2000E+02
  -9.560  0.9736E-36  0.2000E+02
  -9.550  0.6203E-36  0.2000E+02
  -9.540  0.3947E-36  0.2000E+02
  -9.530  0.2509E-36  0.2000E+02
  -9.520  0.1593E-36  0.2000E+02
  -9.510  0.1010E-36  0.2000E+02
  -9.500  0.6395E-37  0.2000E+02
  -9.490  0.4045E-37  0.2000E+02
  -9.480  0.2555E-37  0.2000E+02
  -9.470  0.1613E-37  0.2000E+02
  -9.460  0.1016E-37  0.2000E+02
  -9.450  0.6398E-38  0.2000E+02
  -9.440  0.4023E-38  0.2000E+02
  -9.430  0.2526E-38  0.2000E+02
  -9.420  0.1585E-38  0.2000E+02
  -9.410  0.9928E-39  0.2000E+02
  -9.400  0.6213E-39  0.2000E+02
  -9.390  0.3883E-39  0.2000E+02
  -9.380  0.2424E-39  0.2000E+02
  -9.370  0.1511E-39  0.2000E+02
  -9.360  0.9413E-40  0.2000E+02
  -9.350  0.5855E-40  0.2000E+02
  -9.340  0.3638E-40  0.2000E+02
  -9.330  0.2257E-40  0.2000E+02
  -9.320  0.1399E-40  0.2000E+02
  -9.310  0.8661E-41  0.2000E+02
  -9.300  0.5355E-41  0.2000E+02
  -9.290  0.3307E-41  0.2000E+02
  -9.280  0.2040E-41  0.2000E+02
  -9.270  0.1257E-41  0.2000E+02
  -9.260  0.7734E-42  0.2000E+02
  -9.250  0.4753E-42  0.2000E+02
  -9.240  0.2918E-42  0.2000E+02
  -9.230  0.1789E-42  0.2000E+02
  -9.220  0.1096E-42  0.2000E+02
  -9.210  0.6702E-43  0.2000E+02
  -9.200  0.4095E-43  0.2000E+02
  -9.190  0.2499E-43  0.2000E+02
  -9.180  0.1523E-43  0.2000E+02
  -9.170  0.9271E-44  0.2000E+02
  -9.160  0.5637E-44  0.2000E+02
  -9.150  0.3423E-44  0.2000E+02
  -9.140  0.2077E-44  0.2000E+02
  -9.130  0.1258E-44  0.2000E+02
  -9.120  0.7613E-45  0.2000E+02
  -9.110  0.4601E-45  0.2000E+02
  -9.100  0.2778E-45  0.2000E+02
  -9.090  0.1675E-45  0.2000E+02
  -9.080  0.1009E-45  0.2000E+02
  -9.070  0.6067E-46  0.2000E+02
  -9.060  0.3645E-46  0.2000E+02
  -9.050  0.2187E-46  0.2000E+02
  -9.040  0.1311E-46  0.2000E+02
