#  E (eV)   dos(E)     Int dos(E) EFermi =   7.987 eV
 -14.458  0.6863E-03  0.6863E-05
 -14.448  0.9289E-03  0.1615E-04
 -14.438  0.1251E-02  0.2866E-04
 -14.428  0.1678E-02  0.4544E-04
 -14.418  0.2239E-02  0.6783E-04
 -14.408  0.2973E-02  0.9756E-04
 -14.398  0.3931E-02  0.1369E-03
 -14.388  0.5172E-02  0.1886E-03
 -14.378  0.6773E-02  0.2563E-03
 -14.368  0.8829E-02  0.3446E-03
 -14.358  0.1145E-01  0.4592E-03
 -14.348  0.1479E-01  0.6071E-03
 -14.338  0.1901E-01  0.7972E-03
 -14.328  0.2432E-01  0.1040E-02
 -14.318  0.3098E-01  0.1350E-02
 -14.308  0.3926E-01  0.1743E-02
 -14.298  0.4953E-01  0.2238E-02
 -14.288  0.6221E-01  0.2860E-02
 -14.278  0.7776E-01  0.3638E-02
 -14.268  0.9675E-01  0.4605E-02
 -14.258  0.1198E+00  0.5803E-02
 -14.248  0.1477E+00  0.7281E-02
 -14.238  0.1813E+00  0.9093E-02
 -14.228  0.2214E+00  0.1131E-01
 -14.218  0.2692E+00  0.1400E-01
 -14.208  0.3259E+00  0.1726E-01
 -14.198  0.3926E+00  0.2118E-01
 -14.188  0.4709E+00  0.2589E-01
 -14.178  0.5623E+00  0.3152E-01
 -14.168  0.6684E+00  0.3820E-01
 -14.158  0.7909E+00  0.4611E-01
 -14.148  0.9317E+00  0.5543E-01
 -14.138  0.1093E+01  0.6635E-01
 -14.128  0.1276E+01  0.7911E-01
 -14.118  0.1483E+01  0.9394E-01
 -14.108  0.1716E+01  0.1111E+00
 -14.098  0.1977E+01  0.1309E+00
 -14.088  0.2268E+01  0.1536E+00
 -14.078  0.2591E+01  0.1795E+00
 -14.068  0.2947E+01  0.2089E+00
 -14.058  0.3338E+01  0.2423E+00
 -14.048  0.3764E+01  0.2800E+00
 -14.038  0.4227E+01  0.3222E+00
 -14.028  0.4727E+01  0.3695E+00
 -14.018  0.5265E+01  0.4221E+00
 -14.008  0.5839E+01  0.4805E+00
 -13.998  0.6451E+01  0.5450E+00
 -13.988  0.7098E+01  0.6160E+00
 -13.978  0.7779E+01  0.6938E+00
 -13.968  0.8493E+01  0.7788E+00
 -13.958  0.9237E+01  0.8711E+00
 -13.948  0.1001E+02  0.9712E+00
 -13.938  0.1080E+02  0.1079E+01
 -13.928  0.1162E+02  0.1195E+01
 -13.918  0.1245E+02  0.1320E+01
 -13.908  0.1330E+02  0.1453E+01
 -13.898  0.1416E+02  0.1595E+01
 -13.888  0.1502E+02  0.1745E+01
 -13.878  0.1588E+02  0.1904E+01
 -13.868  0.1674E+02  0.2071E+01
 -13.858  0.1760E+02  0.2247E+01
 -13.848  0.1844E+02  0.2431E+01
 -13.838  0.1927E+02  0.2624E+01
 -13.828  0.2008E+02  0.2825E+01
 -13.818  0.2087E+02  0.3033E+01
 -13.808  0.2163E+02  0.3250E+01
 -13.798  0.2237E+02  0.3473E+01
 -13.788  0.2309E+02  0.3704E+01
 -13.778  0.2377E+02  0.3942E+01
 -13.768  0.2443E+02  0.4186E+01
 -13.758  0.2505E+02  0.4437E+01
 -13.748  0.2564E+02  0.4693E+01
 -13.738  0.2621E+02  0.4955E+01
 -13.728  0.2674E+02  0.5223E+01
 -13.718  0.2724E+02  0.5495E+01
 -13.708  0.2771E+02  0.5772E+01
 -13.698  0.2815E+02  0.6054E+01
 -13.688  0.2856E+02  0.6339E+01
 -13.678  0.2895E+02  0.6629E+01
 -13.668  0.2931E+02  0.6922E+01
 -13.658  0.2964E+02  0.7218E+01
 -13.648  0.2995E+02  0.7518E+01
 -13.638  0.3023E+02  0.7820E+01
 -13.628  0.3048E+02  0.8125E+01
 -13.618  0.3071E+02  0.8432E+01
 -13.608  0.3092E+02  0.8741E+01
 -13.598  0.3110E+02  0.9052E+01
 -13.588  0.3126E+02  0.9365E+01
 -13.578  0.3138E+02  0.9678E+01
 -13.568  0.3148E+02  0.9993E+01
 -13.558  0.3155E+02  0.1031E+02
 -13.548  0.3160E+02  0.1062E+02
 -13.538  0.3161E+02  0.1094E+02
 -13.528  0.3159E+02  0.1126E+02
 -13.518  0.3153E+02  0.1157E+02
 -13.508  0.3144E+02  0.1189E+02
 -13.498  0.3132E+02  0.1220E+02
 -13.488  0.3115E+02  0.1251E+02
 -13.478  0.3095E+02  0.1282E+02
 -13.468  0.3070E+02  0.1313E+02
 -13.458  0.3041E+02  0.1343E+02
 -13.448  0.3008E+02  0.1373E+02
 -13.438  0.2970E+02  0.1403E+02
 -13.428  0.2928E+02  0.1432E+02
 -13.418  0.2882E+02  0.1461E+02
 -13.408  0.2831E+02  0.1489E+02
 -13.398  0.2775E+02  0.1517E+02
 -13.388  0.2715E+02  0.1544E+02
 -13.378  0.2651E+02  0.1571E+02
 -13.368  0.2582E+02  0.1597E+02
 -13.358  0.2510E+02  0.1622E+02
 -13.348  0.2434E+02  0.1646E+02
 -13.338  0.2354E+02  0.1670E+02
 -13.328  0.2271E+02  0.1692E+02
 -13.318  0.2185E+02  0.1714E+02
 -13.308  0.2097E+02  0.1735E+02
 -13.298  0.2007E+02  0.1755E+02
 -13.288  0.1915E+02  0.1774E+02
 -13.278  0.1821E+02  0.1793E+02
 -13.268  0.1727E+02  0.1810E+02
 -13.258  0.1633E+02  0.1826E+02
 -13.248  0.1539E+02  0.1842E+02
 -13.238  0.1446E+02  0.1856E+02
 -13.228  0.1353E+02  0.1870E+02
 -13.218  0.1263E+02  0.1882E+02
 -13.208  0.1174E+02  0.1894E+02
 -13.198  0.1087E+02  0.1905E+02
 -13.188  0.1004E+02  0.1915E+02
 -13.178  0.9232E+01  0.1924E+02
 -13.168  0.8459E+01  0.1932E+02
 -13.158  0.7721E+01  0.1940E+02
 -13.148  0.7021E+01  0.1947E+02
 -13.138  0.6360E+01  0.1954E+02
 -13.128  0.5738E+01  0.1959E+02
 -13.118  0.5156E+01  0.1964E+02
 -13.108  0.4615E+01  0.1969E+02
 -13.098  0.4114E+01  0.1973E+02
 -13.088  0.3653E+01  0.1977E+02
 -13.078  0.3230E+01  0.1980E+02
 -13.068  0.2844E+01  0.1983E+02
 -13.058  0.2493E+01  0.1985E+02
 -13.048  0.2177E+01  0.1988E+02
 -13.038  0.1892E+01  0.1990E+02
 -13.028  0.1638E+01  0.1991E+02
 -13.018  0.1412E+01  0.1993E+02
 -13.008  0.1212E+01  0.1994E+02
 -12.998  0.1035E+01  0.1995E+02
 -12.988  0.8809E+00  0.1996E+02
 -12.978  0.7461E+00  0.1996E+02
 -12.968  0.6292E+00  0.1997E+02
 -12.958  0.5282E+00  0.1998E+02
 -12.948  0.4415E+00  0.1998E+02
 -12.938  0.3673E+00  0.1998E+02
 -12.928  0.3043E+00  0.1999E+02
 -12.918  0.2509E+00  0.1999E+02
 -12.908  0.2060E+00  0.1999E+02
 -12.898  0.1683E+00  0.1999E+02
 -12.888  0.1369E+00  0.1999E+02
 -12.878  0.1109E+00  0.2000E+02
 -12.868  0.8938E-01  0.2000E+02
 -12.858  0.7172E-01  0.2000E+02
 -12.848  0.5728E-01  0.2000E+02
 -12.838  0.4555E-01  0.2000E+02
 -12.828  0.3605E-01  0.2000E+02
 -12.818  0.2840E-01  0.2000E+02
 -12.808  0.2227E-01  0.2000E+02
 -12.798  0.1738E-01  0.2000E+02
 -12.788  0.1350E-01  0.2000E+02
 -12.778  0.1044E-01  0.2000E+02
 -12.768  0.8038E-02  0.2000E+02
 -12.758  0.6158E-02  0.2000E+02
 -12.748  0.4696E-02  0.2000E+02
 -12.738  0.3565E-02  0.2000E+02
 -12.728  0.2693E-02  0.2000E+02
 -12.718  0.2025E-02  0.2000E+02
 -12.708  0.1516E-02  0.2000E+02
 -12.698  0.1129E-02  0.2000E+02
 -12.688  0.8374E-03  0.2000E+02
 -12.678  0.6180E-03  0.2000E+02
 -12.668  0.4540E-03  0.2000E+02
 -12.658  0.3319E-03  0.2000E+02
 -12.648  0.2415E-03  0.2000E+02
 -12.638  0.1749E-03  0.2000E+02
 -12.628  0.1261E-03  0.2000E+02
 -12.618  0.9048E-04  0.2000E+02
 -12.608  0.6462E-04  0.2000E+02
 -12.598  0.4593E-04  0.2000E+02
 -12.588  0.3249E-04  0.2000E+02
 -12.578  0.2288E-04  0.2000E+02
 -12.568  0.1603E-04  0.2000E+02
 -12.558  0.1118E-04  0.2000E+02
 -12.548  0.7762E-05  0.2000E+02
 -12.538  0.5363E-05  0.2000E+02
 -12.528  0.3688E-05  0.2000E+02
 -12.518  0.2524E-05  0.2000E+02
 -12.508  0.1719E-05  0.2000E+02
 -12.498  0.1166E-05  0.2000E+02
 -12.488  0.7865E-06  0.2000E+02
 -12.478  0.5282E-06  0.2000E+02
 -12.468  0.3530E-06  0.2000E+02
 -12.458  0.2348E-06  0.2000E+02
 -12.448  0.1555E-06  0.2000E+02
 -12.438  0.1025E-06  0.2000E+02
 -12.428  0.6720E-07  0.2000E+02
 -12.418  0.4386E-07  0.2000E+02
 -12.408  0.2849E-07  0.2000E+02
 -12.398  0.1842E-07  0.2000E+02
 -12.388  0.1186E-07  0.2000E+02
 -12.378  0.7593E-08  0.2000E+02
 -12.368  0.4840E-08  0.2000E+02
 -12.358  0.3071E-08  0.2000E+02
 -12.348  0.1939E-08  0.2000E+02
 -12.338  0.1218E-08  0.2000E+02
 -12.328  0.7620E-09  0.2000E+02
 -12.318  0.4743E-09  0.2000E+02
 -12.308  0.2939E-09  0.2000E+02
 -12.298  0.1812E-09  0.2000E+02
 -12.288  0.1112E-09  0.2000E+02
 -12.278  0.6790E-10  0.2000E+02
 -12.268  0.4128E-10  0.2000E+02
 -12.258  0.2497E-10  0.2000E+02
 -12.248  0.1503E-10  0.2000E+02
 -12.238  0.9009E-11  0.2000E+02
 -12.228  0.5373E-11  0.2000E+02
 -12.218  0.3189E-11  0.2000E+02
 -12.208  0.1884E-11  0.2000E+02
 -12.198  0.1108E-11  0.2000E+02
 -12.188  0.6482E-12  0.2000E+02
 -12.178  0.3775E-12  0.2000E+02
 -12.168  0.2188E-12  0.2000E+02
 -12.158  0.1262E-12  0.2000E+02
 -12.148  0.7246E-13  0.2000E+02
 -12.138  0.4140E-13  0.2000E+02
 -12.128  0.2354E-13  0.2000E+02
 -12.118  0.1332E-13  0.2000E+02
 -12.108  0.7506E-14  0.2000E+02
 -12.098  0.4208E-14  0.2000E+02
 -12.088  0.2348E-14  0.2000E+02
 -12.078  0.1304E-14  0.2000E+02
 -12.068  0.7205E-15  0.2000E+02
 -12.058  0.3963E-15  0.2000E+02
 -12.048  0.2169E-15  0.2000E+02
 -12.038  0.1182E-15  0.2000E+02
 -12.028  0.6408E-16  0.2000E+02
 -12.018  0.3458E-16  0.2000E+02
 -12.008  0.1857E-16  0.2000E+02
 -11.998  0.9927E-17  0.2000E+02
 -11.988  0.5281E-17  0.2000E+02
 -11.978  0.2796E-17  0.2000E+02
 -11.968  0.1473E-17  0.2000E+02
 -11.958  0.7727E-18  0.2000E+02
 -11.948  0.4033E-18  0.2000E+02
 -11.938  0.2095E-18  0.2000E+02
 -11.928  0.1083E-18  0.2000E+02
 -11.918  0.5572E-19  0.2000E+02
 -11.908  0.2853E-19  0.2000E+02
 -11.898  0.1454E-19  0.2000E+02
 -11.888  0.7376E-20  0.2000E+02
 -11.878  0.3724E-20  0.2000E+02
 -11.868  0.1871E-20  0.2000E+02
 -11.858  0.9354E-21  0.2000E+02
 -11.848  0.4655E-21  0.2000E+02
 -11.838  0.2305E-21  0.2000E+02
 -11.828  0.1136E-21  0.2000E+02
 -11.818  0.5574E-22  0.2000E+02
 -11.808  0.2721E-22  0.2000E+02
 -11.798  0.1322E-22  0.2000E+02
 -11.788  0.6395E-23  0.2000E+02
 -11.778  0.3078E-23  0.2000E+02
 -11.768  0.1474E-23  0.2000E+02
 -11.758  0.7028E-24  0.2000E+02
 -11.748  0.3334E-24  0.2000E+02
 -11.738  0.1574E-24  0.2000E+02
 -11.728  0.7399E-25  0.2000E+02
 -11.718  0.3461E-25  0.2000E+02
 -11.708  0.1611E-25  0.2000E+02
 -11.698  0.7462E-26  0.2000E+02
 -11.688  0.3441E-26  0.2000E+02
 -11.678  0.1579E-26  0.2000E+02
 -11.668  0.7210E-27  0.2000E+02
 -11.658  0.3277E-27  0.2000E+02
 -11.648  0.1482E-27  0.2000E+02
 -11.638  0.6673E-28  0.2000E+02
 -11.628  0.2990E-28  0.2000E+02
 -11.618  0.1333E-28  0.2000E+02
 -11.608  0.5916E-29  0.2000E+02
 -11.598  0.2613E-29  0.2000E+02
 -11.588  0.1149E-29  0.2000E+02
 -11.578  0.5024E-30  0.2000E+02
 -11.568  0.2188E-30  0.2000E+02
 -11.558  0.9479E-31  0.2000E+02
 -11.548  0.4088E-31  0.2000E+02
 -11.538  0.1754E-31  0.2000E+02
 -11.528  0.7494E-32  0.2000E+02
 -11.518  0.3186E-32  0.2000E+02
 -11.508  0.1348E-32  0.2000E+02
 -11.498  0.5676E-33  0.2000E+02
 -11.488  0.2378E-33  0.2000E+02
 -11.478  0.9920E-34  0.2000E+02
 -11.468  0.4118E-34  0.2000E+02
 -11.458  0.1701E-34  0.2000E+02
 -11.448  0.6993E-35  0.2000E+02
 -11.438  0.2861E-35  0.2000E+02
 -11.428  0.1165E-35  0.2000E+02
 -11.418  0.4723E-36  0.2000E+02
 -11.408  0.1905E-36  0.2000E+02
 -11.398  0.7647E-37  0.2000E+02
 -11.388  0.3055E-37  0.2000E+02
 -11.378  0.1215E-37  0.2000E+02
 -11.368  0.4807E-38  0.2000E+02
 -11.358  0.1893E-38  0.2000E+02
 -11.348  0.7420E-39  0.2000E+02
 -11.338  0.2895E-39  0.2000E+02
 -11.328  0.1124E-39  0.2000E+02
 -11.318  0.4342E-40  0.2000E+02
 -11.308  0.1670E-40  0.2000E+02
 -11.298  0.6390E-41  0.2000E+02
 -11.288  0.2434E-41  0.2000E+02
 -11.278  0.9225E-42  0.2000E+02
 -11.268  0.3480E-42  0.2000E+02
 -11.258  0.1307E-42  0.2000E+02
 -11.248  0.4882E-43  0.2000E+02
 -11.238  0.1816E-43  0.2000E+02
 -11.228  0.6720E-44  0.2000E+02
 -11.218  0.2475E-44  0.2000E+02
 -11.208  0.9074E-45  0.2000E+02
 -11.198  0.3311E-45  0.2000E+02
 -11.188  0.1202E-45  0.2000E+02
 -11.178  0.4344E-46  0.2000E+02
 -11.168  0.1562E-46  0.2000E+02
 -11.158  0.5592E-47  0.2000E+02
 -11.148  0.1992E-47  0.2000E+02
 -11.138  0.7062E-48  0.2000E+02
 -11.128  0.2492E-48  0.2000E+02
 -11.118  0.8750E-49  0.2000E+02
 -11.108  0.3058E-49  0.2000E+02
 -11.098  0.1064E-49  0.2000E+02
 -11.088  0.3681E-50  0.2000E+02
 -11.078  0.1268E-50  0.2000E+02
 -11.068  0.4348E-51  0.2000E+02
 -11.058  0.1484E-51  0.2000E+02
 -11.048  0.5038E-52  0.2000E+02
 -11.038  0.1703E-52  0.2000E+02
 -11.028  0.5728E-53  0.2000E+02
 -11.018  0.1917E-53  0.2000E+02
 -11.008  0.6388E-54  0.2000E+02
 -10.998  0.2118E-54  0.2000E+02
 -10.988  0.6989E-55  0.2000E+02
 -10.978  0.2295E-55  0.2000E+02
 -10.968  0.7502E-56  0.2000E+02
 -10.958  0.2440E-56  0.2000E+02
 -10.948  0.7900E-57  0.2000E+02
 -10.938  0.2545E-57  0.2000E+02
 -10.928  0.8161E-58  0.2000E+02
 -10.918  0.2604E-58  0.2000E+02
 -10.908  0.8272E-59  0.2000E+02
 -10.898  0.2614E-59  0.2000E+02
 -10.888  0.8224E-60  0.2000E+02
 -10.878  0.2575E-60  0.2000E+02
 -10.868  0.8023E-61  0.2000E+02
 -10.858  0.2488E-61  0.2000E+02
 -10.848  0.7677E-62  0.2000E+02
 -10.838  0.2358E-62  0.2000E+02
 -10.828  0.7208E-63  0.2000E+02
 -10.818  0.2193E-63  0.2000E+02
 -10.808  0.6639E-64  0.2000E+02
 -10.798  0.2000E-64  0.2000E+02
 -10.788  0.5999E-65  0.2000E+02
 -10.778  0.1790E-65  0.2000E+02
 -10.768  0.5317E-66  0.2000E+02
 -10.758  0.1572E-66  0.2000E+02
 -10.748  0.4624E-67  0.2000E+02
 -10.738  0.1354E-67  0.2000E+02
 -10.728  0.3945E-68  0.2000E+02
 -10.718  0.1144E-68  0.2000E+02
 -10.708  0.3302E-69  0.2000E+02
 -10.698  0.9485E-70  0.2000E+02
 -10.688  0.2711E-70  0.2000E+02
 -10.678  0.7714E-71  0.2000E+02
 -10.668  0.2184E-71  0.2000E+02
 -10.658  0.6155E-72  0.2000E+02
 -10.648  0.1726E-72  0.2000E+02
 -10.638  0.4817E-73  0.2000E+02
 -10.628  0.1338E-73  0.2000E+02
 -10.618  0.3699E-74  0.2000E+02
 -10.608  0.1018E-74  0.2000E+02
 -10.598  0.2787E-75  0.2000E+02
 -10.588  0.7594E-76  0.2000E+02
 -10.578  0.2060E-76  0.2000E+02
 -10.568  0.5559E-77  0.2000E+02
 -10.558  0.1493E-77  0.2000E+02
 -10.548  0.3992E-78  0.2000E+02
 -10.538  0.1062E-78  0.2000E+02
 -10.528  0.2812E-79  0.2000E+02
 -10.518  0.7412E-80  0.2000E+02
 -10.508  0.1944E-80  0.2000E+02
 -10.498  0.5075E-81  0.2000E+02
 -10.488  0.1320E-81  0.2000E+02
 -10.478  0.3424E-82  0.2000E+02
 -10.468  0.8935E-83  0.2000E+02
 -10.458  0.2414E-83  0.2000E+02
 -10.448  0.7427E-84  0.2000E+02
 -10.438  0.3177E-84  0.2000E+02
 -10.428  0.2121E-84  0.2000E+02
 -10.418  0.1880E-84  0.2000E+02
 -10.408  0.1837E-84  0.2000E+02
 -10.398  0.1836E-84  0.2000E+02
 -10.388  0.1836E-84  0.2000E+02
 -10.378  0.1836E-84  0.2000E+02
 -10.368  0.1836E-84  0.2000E+02
 -10.358  0.1836E-84  0.2000E+02
 -10.348  0.1836E-84  0.2000E+02
 -10.338  0.1836E-84  0.2000E+02
 -10.328  0.1836E-84  0.2000E+02
 -10.318  0.1836E-84  0.2000E+02
 -10.308  0.1836E-84  0.2000E+02
 -10.298  0.1836E-84  0.2000E+02
 -10.288  0.1836E-84  0.2000E+02
 -10.278  0.1836E-84  0.2000E+02
 -10.268  0.1836E-84  0.2000E+02
 -10.258  0.1836E-84  0.2000E+02
 -10.248  0.1836E-84  0.2000E+02
 -10.238  0.1836E-84  0.2000E+02
 -10.228  0.1836E-84  0.2000E+02
 -10.218  0.1836E-84  0.2000E+02
 -10.208  0.1836E-84  0.2000E+02
 -10.198  0.1836E-84  0.2000E+02
 -10.188  0.1836E-84  0.2000E+02
 -10.178  0.1836E-84  0.2000E+02
 -10.168  0.1836E-84  0.2000E+02
 -10.158  0.1836E-84  0.2000E+02
 -10.148  0.1836E-84  0.2000E+02
 -10.138  0.1836E-84  0.2000E+02
 -10.128  0.1836E-84  0.2000E+02
 -10.118  0.1836E-84  0.2000E+02
 -10.108  0.1836E-84  0.2000E+02
 -10.098  0.1836E-84  0.2000E+02
 -10.088  0.1836E-84  0.2000E+02
 -10.078  0.1836E-84  0.2000E+02
 -10.068  0.1836E-84  0.2000E+02
 -10.058  0.1836E-84  0.2000E+02
 -10.048  0.1836E-84  0.2000E+02
 -10.038  0.1836E-84  0.2000E+02
 -10.028  0.1836E-84  0.2000E+02
 -10.018  0.1836E-84  0.2000E+02
 -10.008  0.1836E-84  0.2000E+02
  -9.998  0.1836E-84  0.2000E+02
  -9.988  0.1836E-84  0.2000E+02
  -9.978  0.1836E-84  0.2000E+02
  -9.968  0.1836E-84  0.2000E+02
  -9.958  0.1836E-84  0.2000E+02
  -9.948  0.1836E-84  0.2000E+02
  -9.938  0.1836E-84  0.2000E+02
  -9.928  0.1836E-84  0.2000E+02
  -9.918  0.1836E-84  0.2000E+02
  -9.908  0.1836E-84  0.2000E+02
  -9.898  0.1836E-84  0.2000E+02
  -9.888  0.1836E-84  0.2000E+02
  -9.878  0.1836E-84  0.2000E+02
  -9.868  0.1836E-84  0.2000E+02
  -9.858  0.1836E-84  0.2000E+02
  -9.848  0.1836E-84  0.2000E+02
  -9.838  0.1836E-84  0.2000E+02
  -9.828  0.1836E-84  0.2000E+02
  -9.818  0.1836E-84  0.2000E+02
  -9.808  0.1836E-84  0.2000E+02
  -9.798  0.1836E-84  0.2000E+02
  -9.788  0.1836E-84  0.2000E+02
  -9.778  0.1836E-84  0.2000E+02
  -9.768  0.1836E-84  0.2000E+02
  -9.758  0.1836E-84  0.2000E+02
  -9.748  0.1836E-84  0.2000E+02
  -9.738  0.1836E-84  0.2000E+02
  -9.728  0.1836E-84  0.2000E+02
  -9.718  0.1836E-84  0.2000E+02
  -9.708  0.1836E-84  0.2000E+02
  -9.698  0.1836E-84  0.2000E+02
  -9.688  0.1836E-84  0.2000E+02
  -9.678  0.1836E-84  0.2000E+02
  -9.668  0.1836E-84  0.2000E+02
  -9.658  0.1836E-84  0.2000E+02
  -9.648  0.1836E-84  0.2000E+02
  -9.638  0.1836E-84  0.2000E+02
  -9.628  0.1836E-84  0.2000E+02
  -9.618  0.1836E-84  0.2000E+02
  -9.608  0.1836E-84  0.2000E+02
  -9.598  0.1836E-84  0.2000E+02
  -9.588  0.1836E-84  0.2000E+02
  -9.578  0.1836E-84  0.2000E+02
  -9.568  0.1836E-84  0.2000E+02
  -9.558  0.1836E-84  0.2000E+02
  -9.548  0.1836E-84  0.2000E+02
  -9.538  0.1836E-84  0.2000E+02
  -9.528  0.1836E-84  0.2000E+02
  -9.518  0.1836E-84  0.2000E+02
  -9.508  0.1836E-84  0.2000E+02
  -9.498  0.1836E-84  0.2000E+02
  -9.488  0.1836E-84  0.2000E+02
  -9.478  0.1836E-84  0.2000E+02
  -9.468  0.1836E-84  0.2000E+02
  -9.458  0.1836E-84  0.2000E+02
  -9.448  0.1836E-84  0.2000E+02
  -9.438  0.1836E-84  0.2000E+02
  -9.428  0.1836E-84  0.2000E+02
  -9.418  0.1836E-84  0.2000E+02
  -9.408  0.1836E-84  0.2000E+02
  -9.398  0.1836E-84  0.2000E+02
  -9.388  0.1836E-84  0.2000E+02
  -9.378  0.1836E-84  0.2000E+02
  -9.368  0.1836E-84  0.2000E+02
  -9.358  0.1836E-84  0.2000E+02
  -9.348  0.1836E-84  0.2000E+02
  -9.338  0.1836E-84  0.2000E+02
  -9.328  0.1836E-84  0.2000E+02
  -9.318  0.1836E-84  0.2000E+02
  -9.308  0.1836E-84  0.2000E+02
  -9.298  0.1836E-84  0.2000E+02
  -9.288  0.1836E-84  0.2000E+02
  -9.278  0.1836E-84  0.2000E+02
  -9.268  0.1836E-84  0.2000E+02
  -9.258  0.1836E-84  0.2000E+02
  -9.248  0.1836E-84  0.2000E+02
  -9.238  0.1836E-84  0.2000E+02
  -9.228  0.1836E-84  0.2000E+02
  -9.218  0.1836E-84  0.2000E+02
  -9.208  0.1836E-84  0.2000E+02
  -9.198  0.1836E-84  0.2000E+02
  -9.188  0.1836E-84  0.2000E+02
  -9.178  0.1836E-84  0.2000E+02
  -9.168  0.1836E-84  0.2000E+02
  -9.158  0.1836E-84  0.2000E+02
  -9.148  0.1836E-84  0.2000E+02
  -9.138  0.1836E-84  0.2000E+02
  -9.128  0.1836E-84  0.2000E+02
  -9.118  0.1836E-84  0.2000E+02
  -9.108  0.1836E-84  0.2000E+02
  -9.098  0.1836E-84  0.2000E+02
  -9.088  0.1836E-84  0.2000E+02
  -9.078  0.1836E-84  0.2000E+02
  -9.068  0.1836E-84  0.2000E+02
  -9.058  0.1836E-84  0.2000E+02
  -9.048  0.1836E-84  0.2000E+02
  -9.038  0.1836E-84  0.2000E+02
  -9.028  0.1836E-84  0.2000E+02
  -9.018  0.1836E-84  0.2000E+02
  -9.008  0.1836E-84  0.2000E+02
  -8.998  0.1836E-84  0.2000E+02
  -8.988  0.1836E-84  0.2000E+02
  -8.978  0.1836E-84  0.2000E+02
  -8.968  0.1836E-84  0.2000E+02
  -8.958  0.1836E-84  0.2000E+02
  -8.948  0.1836E-84  0.2000E+02
  -8.938  0.1836E-84  0.2000E+02
  -8.928  0.1836E-84  0.2000E+02
  -8.918  0.1836E-84  0.2000E+02
  -8.908  0.1836E-84  0.2000E+02
  -8.898  0.1836E-84  0.2000E+02
  -8.888  0.1836E-84  0.2000E+02
  -8.878  0.1836E-84  0.2000E+02
  -8.868  0.1836E-84  0.2000E+02
  -8.858  0.1836E-84  0.2000E+02
  -8.848  0.1836E-84  0.2000E+02
  -8.838  0.1836E-84  0.2000E+02
  -8.828  0.1836E-84  0.2000E+02
  -8.818  0.1836E-84  0.2000E+02
  -8.808  0.1836E-84  0.2000E+02
  -8.798  0.1836E-84  0.2000E+02
  -8.788  0.1836E-84  0.2000E+02
  -8.778  0.1836E-84  0.2000E+02
  -8.768  0.1836E-84  0.2000E+02
  -8.758  0.1836E-84  0.2000E+02
  -8.748  0.1836E-84  0.2000E+02
  -8.738  0.1836E-84  0.2000E+02
  -8.728  0.1836E-84  0.2000E+02
  -8.718  0.1836E-84  0.2000E+02
  -8.708  0.1836E-84  0.2000E+02
  -8.698  0.1836E-84  0.2000E+02
  -8.688  0.1836E-84  0.2000E+02
  -8.678  0.1836E-84  0.2000E+02
  -8.668  0.1836E-84  0.2000E+02
  -8.658  0.1836E-84  0.2000E+02
  -8.648  0.1836E-84  0.2000E+02
  -8.638  0.1836E-84  0.2000E+02
  -8.628  0.1836E-84  0.2000E+02
  -8.618  0.1836E-84  0.2000E+02
  -8.608  0.1836E-84  0.2000E+02
  -8.598  0.1836E-84  0.2000E+02
  -8.588  0.1836E-84  0.2000E+02
  -8.578  0.1836E-84  0.2000E+02
  -8.568  0.1836E-84  0.2000E+02
  -8.558  0.1836E-84  0.2000E+02
  -8.548  0.1836E-84  0.2000E+02
  -8.538  0.1836E-84  0.2000E+02
  -8.528  0.1836E-84  0.2000E+02
  -8.518  0.1836E-84  0.2000E+02
  -8.508  0.1836E-84  0.2000E+02
  -8.498  0.1836E-84  0.2000E+02
  -8.488  0.1836E-84  0.2000E+02
  -8.478  0.1836E-84  0.2000E+02
  -8.468  0.1836E-84  0.2000E+02
  -8.458  0.1836E-84  0.2000E+02
  -8.448  0.1836E-84  0.2000E+02
  -8.438  0.1836E-84  0.2000E+02
  -8.428  0.1836E-84  0.2000E+02
