#  E (eV)   dos(E)     Int dos(E) EFermi =   7.987 eV
 -14.662  0.6266E-03  0.6266E-05
 -14.652  0.7860E-03  0.1413E-04
 -14.642  0.9834E-03  0.2396E-04
 -14.632  0.1227E-02  0.3623E-04
 -14.622  0.1527E-02  0.5150E-04
 -14.612  0.1896E-02  0.7046E-04
 -14.602  0.2347E-02  0.9393E-04
 -14.592  0.2898E-02  0.1229E-03
 -14.582  0.3569E-02  0.1586E-03
 -14.572  0.4384E-02  0.2024E-03
 -14.562  0.5371E-02  0.2561E-03
 -14.552  0.6563E-02  0.3218E-03
 -14.542  0.7998E-02  0.4018E-03
 -14.532  0.9721E-02  0.4990E-03
 -14.522  0.1179E-01  0.6168E-03
 -14.512  0.1425E-01  0.7593E-03
 -14.502  0.1719E-01  0.9312E-03
 -14.492  0.2068E-01  0.1138E-02
 -14.482  0.2481E-01  0.1386E-02
 -14.472  0.2968E-01  0.1683E-02
 -14.462  0.3543E-01  0.2037E-02
 -14.452  0.4218E-01  0.2459E-02
 -14.442  0.5008E-01  0.2960E-02
 -14.432  0.5932E-01  0.3553E-02
 -14.422  0.7007E-01  0.4254E-02
 -14.412  0.8256E-01  0.5079E-02
 -14.402  0.9703E-01  0.6050E-02
 -14.392  0.1137E+00  0.7187E-02
 -14.382  0.1330E+00  0.8517E-02
 -14.372  0.1551E+00  0.1007E-01
 -14.362  0.1804E+00  0.1187E-01
 -14.352  0.2094E+00  0.1397E-01
 -14.342  0.2423E+00  0.1639E-01
 -14.332  0.2797E+00  0.1919E-01
 -14.322  0.3221E+00  0.2241E-01
 -14.312  0.3700E+00  0.2611E-01
 -14.302  0.4239E+00  0.3035E-01
 -14.292  0.4845E+00  0.3519E-01
 -14.282  0.5524E+00  0.4072E-01
 -14.272  0.6282E+00  0.4700E-01
 -14.262  0.7126E+00  0.5412E-01
 -14.252  0.8064E+00  0.6219E-01
 -14.242  0.9103E+00  0.7129E-01
 -14.232  0.1025E+01  0.8154E-01
 -14.222  0.1151E+01  0.9306E-01
 -14.212  0.1290E+01  0.1060E+00
 -14.202  0.1442E+01  0.1204E+00
 -14.192  0.1608E+01  0.1365E+00
 -14.182  0.1789E+01  0.1544E+00
 -14.172  0.1986E+01  0.1742E+00
 -14.162  0.2199E+01  0.1962E+00
 -14.152  0.2429E+01  0.2205E+00
 -14.142  0.2676E+01  0.2473E+00
 -14.132  0.2942E+01  0.2767E+00
 -14.122  0.3227E+01  0.3089E+00
 -14.112  0.3532E+01  0.3443E+00
 -14.102  0.3856E+01  0.3828E+00
 -14.092  0.4201E+01  0.4248E+00
 -14.082  0.4566E+01  0.4705E+00
 -14.072  0.4951E+01  0.5200E+00
 -14.062  0.5358E+01  0.5736E+00
 -14.052  0.5784E+01  0.6314E+00
 -14.042  0.6232E+01  0.6937E+00
 -14.032  0.6699E+01  0.7607E+00
 -14.022  0.7186E+01  0.8326E+00
 -14.012  0.7692E+01  0.9095E+00
 -14.002  0.8217E+01  0.9917E+00
 -13.992  0.8759E+01  0.1079E+01
 -13.982  0.9318E+01  0.1172E+01
 -13.972  0.9892E+01  0.1271E+01
 -13.962  0.1048E+02  0.1376E+01
 -13.952  0.1108E+02  0.1487E+01
 -13.942  0.1170E+02  0.1604E+01
 -13.932  0.1232E+02  0.1727E+01
 -13.922  0.1296E+02  0.1857E+01
 -13.912  0.1360E+02  0.1993E+01
 -13.902  0.1424E+02  0.2135E+01
 -13.892  0.1489E+02  0.2284E+01
 -13.882  0.1555E+02  0.2440E+01
 -13.872  0.1620E+02  0.2602E+01
 -13.862  0.1685E+02  0.2770E+01
 -13.852  0.1750E+02  0.2945E+01
 -13.842  0.1815E+02  0.3127E+01
 -13.832  0.1878E+02  0.3314E+01
 -13.822  0.1942E+02  0.3509E+01
 -13.812  0.2004E+02  0.3709E+01
 -13.802  0.2065E+02  0.3915E+01
 -13.792  0.2124E+02  0.4128E+01
 -13.782  0.2183E+02  0.4346E+01
 -13.772  0.2239E+02  0.4570E+01
 -13.762  0.2294E+02  0.4799E+01
 -13.752  0.2348E+02  0.5034E+01
 -13.742  0.2399E+02  0.5274E+01
 -13.732  0.2448E+02  0.5519E+01
 -13.722  0.2495E+02  0.5769E+01
 -13.712  0.2540E+02  0.6023E+01
 -13.702  0.2583E+02  0.6281E+01
 -13.692  0.2623E+02  0.6543E+01
 -13.682  0.2661E+02  0.6809E+01
 -13.672  0.2696E+02  0.7079E+01
 -13.662  0.2729E+02  0.7352E+01
 -13.652  0.2759E+02  0.7628E+01
 -13.642  0.2786E+02  0.7906E+01
 -13.632  0.2810E+02  0.8187E+01
 -13.622  0.2832E+02  0.8470E+01
 -13.612  0.2850E+02  0.8756E+01
 -13.602  0.2866E+02  0.9042E+01
 -13.592  0.2879E+02  0.9330E+01
 -13.582  0.2888E+02  0.9619E+01
 -13.572  0.2895E+02  0.9908E+01
 -13.562  0.2898E+02  0.1020E+02
 -13.552  0.2899E+02  0.1049E+02
 -13.542  0.2896E+02  0.1078E+02
 -13.532  0.2890E+02  0.1107E+02
 -13.522  0.2881E+02  0.1135E+02
 -13.512  0.2868E+02  0.1164E+02
 -13.502  0.2852E+02  0.1193E+02
 -13.492  0.2834E+02  0.1221E+02
 -13.482  0.2811E+02  0.1249E+02
 -13.472  0.2786E+02  0.1277E+02
 -13.462  0.2758E+02  0.1305E+02
 -13.452  0.2726E+02  0.1332E+02
 -13.442  0.2692E+02  0.1359E+02
 -13.432  0.2654E+02  0.1385E+02
 -13.422  0.2613E+02  0.1411E+02
 -13.412  0.2570E+02  0.1437E+02
 -13.402  0.2524E+02  0.1462E+02
 -13.392  0.2475E+02  0.1487E+02
 -13.382  0.2423E+02  0.1511E+02
 -13.372  0.2369E+02  0.1535E+02
 -13.362  0.2313E+02  0.1558E+02
 -13.352  0.2255E+02  0.1581E+02
 -13.342  0.2195E+02  0.1603E+02
 -13.332  0.2133E+02  0.1624E+02
 -13.322  0.2069E+02  0.1645E+02
 -13.312  0.2004E+02  0.1665E+02
 -13.302  0.1938E+02  0.1684E+02
 -13.292  0.1871E+02  0.1703E+02
 -13.282  0.1803E+02  0.1721E+02
 -13.272  0.1734E+02  0.1738E+02
 -13.262  0.1665E+02  0.1755E+02
 -13.252  0.1596E+02  0.1771E+02
 -13.242  0.1527E+02  0.1786E+02
 -13.232  0.1458E+02  0.1801E+02
 -13.222  0.1390E+02  0.1815E+02
 -13.212  0.1323E+02  0.1828E+02
 -13.202  0.1256E+02  0.1840E+02
 -13.192  0.1190E+02  0.1852E+02
 -13.182  0.1125E+02  0.1863E+02
 -13.172  0.1062E+02  0.1874E+02
 -13.162  0.1001E+02  0.1884E+02
 -13.152  0.9407E+01  0.1893E+02
 -13.142  0.8825E+01  0.1902E+02
 -13.132  0.8261E+01  0.1911E+02
 -13.122  0.7717E+01  0.1918E+02
 -13.112  0.7194E+01  0.1925E+02
 -13.102  0.6691E+01  0.1932E+02
 -13.092  0.6211E+01  0.1938E+02
 -13.082  0.5752E+01  0.1944E+02
 -13.072  0.5315E+01  0.1949E+02
 -13.062  0.4901E+01  0.1954E+02
 -13.052  0.4509E+01  0.1959E+02
 -13.042  0.4139E+01  0.1963E+02
 -13.032  0.3791E+01  0.1967E+02
 -13.022  0.3464E+01  0.1970E+02
 -13.012  0.3158E+01  0.1973E+02
 -13.002  0.2872E+01  0.1976E+02
 -12.992  0.2607E+01  0.1979E+02
 -12.982  0.2360E+01  0.1981E+02
 -12.972  0.2132E+01  0.1983E+02
 -12.962  0.1921E+01  0.1985E+02
 -12.952  0.1727E+01  0.1987E+02
 -12.942  0.1549E+01  0.1989E+02
 -12.932  0.1386E+01  0.1990E+02
 -12.922  0.1237E+01  0.1991E+02
 -12.912  0.1101E+01  0.1992E+02
 -12.902  0.9782E+00  0.1993E+02
 -12.892  0.8668E+00  0.1994E+02
 -12.882  0.7662E+00  0.1995E+02
 -12.872  0.6757E+00  0.1996E+02
 -12.862  0.5943E+00  0.1996E+02
 -12.852  0.5215E+00  0.1997E+02
 -12.842  0.4565E+00  0.1997E+02
 -12.832  0.3986E+00  0.1998E+02
 -12.822  0.3472E+00  0.1998E+02
 -12.812  0.3016E+00  0.1998E+02
 -12.802  0.2614E+00  0.1998E+02
 -12.792  0.2260E+00  0.1999E+02
 -12.782  0.1949E+00  0.1999E+02
 -12.772  0.1676E+00  0.1999E+02
 -12.762  0.1438E+00  0.1999E+02
 -12.752  0.1231E+00  0.1999E+02
 -12.742  0.1051E+00  0.1999E+02
 -12.732  0.8946E-01  0.2000E+02
 -12.722  0.7598E-01  0.2000E+02
 -12.712  0.6437E-01  0.2000E+02
 -12.702  0.5439E-01  0.2000E+02
 -12.692  0.4584E-01  0.2000E+02
 -12.682  0.3854E-01  0.2000E+02
 -12.672  0.3232E-01  0.2000E+02
 -12.662  0.2703E-01  0.2000E+02
 -12.652  0.2255E-01  0.2000E+02
 -12.642  0.1876E-01  0.2000E+02
 -12.632  0.1557E-01  0.2000E+02
 -12.622  0.1289E-01  0.2000E+02
 -12.612  0.1064E-01  0.2000E+02
 -12.602  0.8764E-02  0.2000E+02
 -12.592  0.7199E-02  0.2000E+02
 -12.582  0.5898E-02  0.2000E+02
 -12.572  0.4819E-02  0.2000E+02
 -12.562  0.3927E-02  0.2000E+02
 -12.552  0.3193E-02  0.2000E+02
 -12.542  0.2588E-02  0.2000E+02
 -12.532  0.2093E-02  0.2000E+02
 -12.522  0.1688E-02  0.2000E+02
 -12.512  0.1358E-02  0.2000E+02
 -12.502  0.1090E-02  0.2000E+02
 -12.492  0.8719E-03  0.2000E+02
 -12.482  0.6958E-03  0.2000E+02
 -12.472  0.5539E-03  0.2000E+02
 -12.462  0.4398E-03  0.2000E+02
 -12.452  0.3482E-03  0.2000E+02
 -12.442  0.2750E-03  0.2000E+02
 -12.432  0.2166E-03  0.2000E+02
 -12.422  0.1702E-03  0.2000E+02
 -12.412  0.1334E-03  0.2000E+02
 -12.402  0.1042E-03  0.2000E+02
 -12.392  0.8123E-04  0.2000E+02
 -12.382  0.6315E-04  0.2000E+02
 -12.372  0.4896E-04  0.2000E+02
 -12.362  0.3786E-04  0.2000E+02
 -12.352  0.2920E-04  0.2000E+02
 -12.342  0.2246E-04  0.2000E+02
 -12.332  0.1723E-04  0.2000E+02
 -12.322  0.1318E-04  0.2000E+02
 -12.312  0.1006E-04  0.2000E+02
 -12.302  0.7657E-05  0.2000E+02
 -12.292  0.5812E-05  0.2000E+02
 -12.282  0.4400E-05  0.2000E+02
 -12.272  0.3322E-05  0.2000E+02
 -12.262  0.2502E-05  0.2000E+02
 -12.252  0.1879E-05  0.2000E+02
 -12.242  0.1407E-05  0.2000E+02
 -12.232  0.1051E-05  0.2000E+02
 -12.222  0.7834E-06  0.2000E+02
 -12.212  0.5822E-06  0.2000E+02
 -12.202  0.4315E-06  0.2000E+02
 -12.192  0.3189E-06  0.2000E+02
 -12.182  0.2351E-06  0.2000E+02
 -12.172  0.1729E-06  0.2000E+02
 -12.162  0.1268E-06  0.2000E+02
 -12.152  0.9270E-07  0.2000E+02
 -12.142  0.6761E-07  0.2000E+02
 -12.132  0.4918E-07  0.2000E+02
 -12.122  0.3568E-07  0.2000E+02
 -12.112  0.2582E-07  0.2000E+02
 -12.102  0.1863E-07  0.2000E+02
 -12.092  0.1341E-07  0.2000E+02
 -12.082  0.9625E-08  0.2000E+02
 -12.072  0.6891E-08  0.2000E+02
 -12.062  0.4920E-08  0.2000E+02
 -12.052  0.3503E-08  0.2000E+02
 -12.042  0.2488E-08  0.2000E+02
 -12.032  0.1762E-08  0.2000E+02
 -12.022  0.1245E-08  0.2000E+02
 -12.012  0.8769E-09  0.2000E+02
 -12.002  0.6161E-09  0.2000E+02
 -11.992  0.4317E-09  0.2000E+02
 -11.982  0.3017E-09  0.2000E+02
 -11.972  0.2103E-09  0.2000E+02
 -11.962  0.1462E-09  0.2000E+02
 -11.952  0.1014E-09  0.2000E+02
 -11.942  0.7008E-10  0.2000E+02
 -11.932  0.4832E-10  0.2000E+02
 -11.922  0.3323E-10  0.2000E+02
 -11.912  0.2280E-10  0.2000E+02
 -11.902  0.1559E-10  0.2000E+02
 -11.892  0.1064E-10  0.2000E+02
 -11.882  0.7238E-11  0.2000E+02
 -11.872  0.4912E-11  0.2000E+02
 -11.862  0.3324E-11  0.2000E+02
 -11.852  0.2244E-11  0.2000E+02
 -11.842  0.1510E-11  0.2000E+02
 -11.832  0.1014E-11  0.2000E+02
 -11.822  0.6790E-12  0.2000E+02
 -11.812  0.4534E-12  0.2000E+02
 -11.802  0.3020E-12  0.2000E+02
 -11.792  0.2006E-12  0.2000E+02
 -11.782  0.1329E-12  0.2000E+02
 -11.772  0.8777E-13  0.2000E+02
 -11.762  0.5783E-13  0.2000E+02
 -11.752  0.3800E-13  0.2000E+02
 -11.742  0.2490E-13  0.2000E+02
 -11.732  0.1628E-13  0.2000E+02
 -11.722  0.1061E-13  0.2000E+02
 -11.712  0.6898E-14  0.2000E+02
 -11.702  0.4472E-14  0.2000E+02
 -11.692  0.2892E-14  0.2000E+02
 -11.682  0.1865E-14  0.2000E+02
 -11.672  0.1200E-14  0.2000E+02
 -11.662  0.7694E-15  0.2000E+02
 -11.652  0.4922E-15  0.2000E+02
 -11.642  0.3140E-15  0.2000E+02
 -11.632  0.1998E-15  0.2000E+02
 -11.622  0.1268E-15  0.2000E+02
 -11.612  0.8026E-16  0.2000E+02
 -11.602  0.5066E-16  0.2000E+02
 -11.592  0.3189E-16  0.2000E+02
 -11.582  0.2002E-16  0.2000E+02
 -11.572  0.1254E-16  0.2000E+02
 -11.562  0.7828E-17  0.2000E+02
 -11.552  0.4875E-17  0.2000E+02
 -11.542  0.3028E-17  0.2000E+02
 -11.532  0.1876E-17  0.2000E+02
 -11.522  0.1159E-17  0.2000E+02
 -11.512  0.7140E-18  0.2000E+02
 -11.502  0.4387E-18  0.2000E+02
 -11.492  0.2689E-18  0.2000E+02
 -11.482  0.1643E-18  0.2000E+02
 -11.472  0.1002E-18  0.2000E+02
 -11.462  0.6089E-19  0.2000E+02
 -11.452  0.3692E-19  0.2000E+02
 -11.442  0.2232E-19  0.2000E+02
 -11.432  0.1346E-19  0.2000E+02
 -11.422  0.8095E-20  0.2000E+02
 -11.412  0.4856E-20  0.2000E+02
 -11.402  0.2905E-20  0.2000E+02
 -11.392  0.1733E-20  0.2000E+02
 -11.382  0.1031E-20  0.2000E+02
 -11.372  0.6118E-21  0.2000E+02
 -11.362  0.3621E-21  0.2000E+02
 -11.352  0.2137E-21  0.2000E+02
 -11.342  0.1258E-21  0.2000E+02
 -11.332  0.7384E-22  0.2000E+02
 -11.322  0.4323E-22  0.2000E+02
 -11.312  0.2524E-22  0.2000E+02
 -11.302  0.1470E-22  0.2000E+02
 -11.292  0.8537E-23  0.2000E+02
 -11.282  0.4945E-23  0.2000E+02
 -11.272  0.2856E-23  0.2000E+02
 -11.262  0.1646E-23  0.2000E+02
 -11.252  0.9455E-24  0.2000E+02
 -11.242  0.5418E-24  0.2000E+02
 -11.232  0.3096E-24  0.2000E+02
 -11.222  0.1765E-24  0.2000E+02
 -11.212  0.1003E-24  0.2000E+02
 -11.202  0.5686E-25  0.2000E+02
 -11.192  0.3215E-25  0.2000E+02
 -11.182  0.1813E-25  0.2000E+02
 -11.172  0.1019E-25  0.2000E+02
 -11.162  0.5717E-26  0.2000E+02
 -11.152  0.3197E-26  0.2000E+02
 -11.142  0.1784E-26  0.2000E+02
 -11.132  0.9923E-27  0.2000E+02
 -11.122  0.5505E-27  0.2000E+02
 -11.112  0.3046E-27  0.2000E+02
 -11.102  0.1681E-27  0.2000E+02
 -11.092  0.9252E-28  0.2000E+02
 -11.082  0.5079E-28  0.2000E+02
 -11.072  0.2780E-28  0.2000E+02
 -11.062  0.1518E-28  0.2000E+02
 -11.052  0.8264E-29  0.2000E+02
 -11.042  0.4488E-29  0.2000E+02
 -11.032  0.2430E-29  0.2000E+02
 -11.022  0.1313E-29  0.2000E+02
 -11.012  0.7070E-30  0.2000E+02
 -11.002  0.3798E-30  0.2000E+02
 -10.992  0.2035E-30  0.2000E+02
 -10.982  0.1087E-30  0.2000E+02
 -10.972  0.5794E-31  0.2000E+02
 -10.962  0.3080E-31  0.2000E+02
 -10.952  0.1632E-31  0.2000E+02
 -10.942  0.8628E-32  0.2000E+02
 -10.932  0.4549E-32  0.2000E+02
 -10.922  0.2392E-32  0.2000E+02
 -10.912  0.1254E-32  0.2000E+02
 -10.902  0.6558E-33  0.2000E+02
 -10.892  0.3420E-33  0.2000E+02
 -10.882  0.1779E-33  0.2000E+02
 -10.872  0.9229E-34  0.2000E+02
 -10.862  0.4775E-34  0.2000E+02
 -10.852  0.2464E-34  0.2000E+02
 -10.842  0.1268E-34  0.2000E+02
 -10.832  0.6506E-35  0.2000E+02
 -10.822  0.3330E-35  0.2000E+02
 -10.812  0.1700E-35  0.2000E+02
 -10.802  0.8653E-36  0.2000E+02
 -10.792  0.4393E-36  0.2000E+02
 -10.782  0.2224E-36  0.2000E+02
 -10.772  0.1123E-36  0.2000E+02
 -10.762  0.5657E-37  0.2000E+02
 -10.752  0.2841E-37  0.2000E+02
 -10.742  0.1423E-37  0.2000E+02
 -10.732  0.7110E-38  0.2000E+02
 -10.722  0.3543E-38  0.2000E+02
 -10.712  0.1760E-38  0.2000E+02
 -10.702  0.8723E-39  0.2000E+02
 -10.692  0.4311E-39  0.2000E+02
 -10.682  0.2125E-39  0.2000E+02
 -10.672  0.1045E-39  0.2000E+02
 -10.662  0.5121E-40  0.2000E+02
 -10.652  0.2504E-40  0.2000E+02
 -10.642  0.1221E-40  0.2000E+02
 -10.632  0.5938E-41  0.2000E+02
 -10.622  0.2880E-41  0.2000E+02
 -10.612  0.1393E-41  0.2000E+02
 -10.602  0.6720E-42  0.2000E+02
 -10.592  0.3233E-42  0.2000E+02
 -10.582  0.1551E-42  0.2000E+02
 -10.572  0.7423E-43  0.2000E+02
 -10.562  0.3542E-43  0.2000E+02
 -10.552  0.1686E-43  0.2000E+02
 -10.542  0.8003E-44  0.2000E+02
 -10.532  0.3789E-44  0.2000E+02
 -10.522  0.1789E-44  0.2000E+02
 -10.512  0.8422E-45  0.2000E+02
 -10.502  0.3955E-45  0.2000E+02
 -10.492  0.1852E-45  0.2000E+02
 -10.482  0.8651E-46  0.2000E+02
 -10.472  0.4030E-46  0.2000E+02
 -10.462  0.1872E-46  0.2000E+02
 -10.452  0.8674E-47  0.2000E+02
 -10.442  0.4008E-47  0.2000E+02
 -10.432  0.1847E-47  0.2000E+02
 -10.422  0.8488E-48  0.2000E+02
 -10.412  0.3890E-48  0.2000E+02
 -10.402  0.1778E-48  0.2000E+02
 -10.392  0.8108E-49  0.2000E+02
 -10.382  0.3686E-49  0.2000E+02
 -10.372  0.1671E-49  0.2000E+02
 -10.362  0.7559E-50  0.2000E+02
 -10.352  0.3409E-50  0.2000E+02
 -10.342  0.1533E-50  0.2000E+02
 -10.332  0.6879E-51  0.2000E+02
 -10.322  0.3077E-51  0.2000E+02
 -10.312  0.1373E-51  0.2000E+02
 -10.302  0.6110E-52  0.2000E+02
 -10.292  0.2711E-52  0.2000E+02
 -10.282  0.1200E-52  0.2000E+02
 -10.272  0.5297E-53  0.2000E+02
 -10.262  0.2332E-53  0.2000E+02
 -10.252  0.1024E-53  0.2000E+02
 -10.242  0.4482E-54  0.2000E+02
 -10.232  0.1957E-54  0.2000E+02
 -10.222  0.8524E-55  0.2000E+02
 -10.212  0.3702E-55  0.2000E+02
 -10.202  0.1604E-55  0.2000E+02
 -10.192  0.6927E-56  0.2000E+02
 -10.182  0.2984E-56  0.2000E+02
 -10.172  0.1282E-56  0.2000E+02
 -10.162  0.5495E-57  0.2000E+02
 -10.152  0.2348E-57  0.2000E+02
 -10.142  0.1001E-57  0.2000E+02
 -10.132  0.4255E-58  0.2000E+02
 -10.122  0.1804E-58  0.2000E+02
 -10.112  0.7625E-59  0.2000E+02
 -10.102  0.3215E-59  0.2000E+02
 -10.092  0.1352E-59  0.2000E+02
 -10.082  0.5670E-60  0.2000E+02
 -10.072  0.2372E-60  0.2000E+02
 -10.062  0.9893E-61  0.2000E+02
 -10.052  0.4116E-61  0.2000E+02
 -10.042  0.1707E-61  0.2000E+02
 -10.032  0.7065E-62  0.2000E+02
 -10.022  0.2916E-62  0.2000E+02
 -10.012  0.1200E-62  0.2000E+02
 -10.002  0.4925E-63  0.2000E+02
  -9.992  0.2016E-63  0.2000E+02
  -9.982  0.8230E-64  0.2000E+02
  -9.972  0.3351E-64  0.2000E+02
  -9.962  0.1361E-64  0.2000E+02
  -9.952  0.5510E-65  0.2000E+02
  -9.942  0.2225E-65  0.2000E+02
  -9.932  0.8963E-66  0.2000E+02
  -9.922  0.3600E-66  0.2000E+02
  -9.912  0.1442E-66  0.2000E+02
  -9.902  0.5763E-67  0.2000E+02
  -9.892  0.2296E-67  0.2000E+02
  -9.882  0.9125E-68  0.2000E+02
  -9.872  0.3616E-68  0.2000E+02
  -9.862  0.1429E-68  0.2000E+02
  -9.852  0.5635E-69  0.2000E+02
  -9.842  0.2215E-69  0.2000E+02
  -9.832  0.8685E-70  0.2000E+02
  -9.822  0.3396E-70  0.2000E+02
  -9.812  0.1324E-70  0.2000E+02
  -9.802  0.5151E-71  0.2000E+02
  -9.792  0.1998E-71  0.2000E+02
  -9.782  0.7728E-72  0.2000E+02
  -9.772  0.2982E-72  0.2000E+02
  -9.762  0.1147E-72  0.2000E+02
  -9.752  0.4402E-73  0.2000E+02
  -9.742  0.1685E-73  0.2000E+02
  -9.732  0.6429E-74  0.2000E+02
  -9.722  0.2447E-74  0.2000E+02
  -9.712  0.9289E-75  0.2000E+02
  -9.702  0.3517E-75  0.2000E+02
  -9.692  0.1328E-75  0.2000E+02
  -9.682  0.5000E-76  0.2000E+02
  -9.672  0.1878E-76  0.2000E+02
  -9.662  0.7032E-77  0.2000E+02
  -9.652  0.2627E-77  0.2000E+02
  -9.642  0.9785E-78  0.2000E+02
  -9.632  0.3635E-78  0.2000E+02
  -9.622  0.1347E-78  0.2000E+02
  -9.612  0.4977E-79  0.2000E+02
  -9.602  0.1834E-79  0.2000E+02
  -9.592  0.6741E-80  0.2000E+02
  -9.582  0.2471E-80  0.2000E+02
  -9.572  0.9033E-81  0.2000E+02
  -9.562  0.3294E-81  0.2000E+02
  -9.552  0.1198E-81  0.2000E+02
  -9.542  0.4354E-82  0.2000E+02
  -9.532  0.1583E-82  0.2000E+02
  -9.522  0.5788E-83  0.2000E+02
  -9.512  0.2163E-83  0.2000E+02
  -9.502  0.8573E-84  0.2000E+02
  -9.492  0.3887E-84  0.2000E+02
  -9.482  0.2215E-84  0.2000E+02
  -9.472  0.1630E-84  0.2000E+02
  -9.462  0.1439E-84  0.2000E+02
  -9.452  0.1386E-84  0.2000E+02
  -9.442  0.1377E-84  0.2000E+02
  -9.432  0.1377E-84  0.2000E+02
  -9.422  0.1377E-84  0.2000E+02
  -9.412  0.1377E-84  0.2000E+02
  -9.402  0.1377E-84  0.2000E+02
  -9.392  0.1377E-84  0.2000E+02
  -9.382  0.1377E-84  0.2000E+02
  -9.372  0.1377E-84  0.2000E+02
  -9.362  0.1377E-84  0.2000E+02
  -9.352  0.1377E-84  0.2000E+02
  -9.342  0.1377E-84  0.2000E+02
  -9.332  0.1377E-84  0.2000E+02
  -9.322  0.1377E-84  0.2000E+02
  -9.312  0.1377E-84  0.2000E+02
  -9.302  0.1377E-84  0.2000E+02
  -9.292  0.1377E-84  0.2000E+02
  -9.282  0.1377E-84  0.2000E+02
  -9.272  0.1377E-84  0.2000E+02
  -9.262  0.1377E-84  0.2000E+02
  -9.252  0.1377E-84  0.2000E+02
  -9.242  0.1377E-84  0.2000E+02
  -9.232  0.1377E-84  0.2000E+02
  -9.222  0.1377E-84  0.2000E+02
  -9.212  0.1377E-84  0.2000E+02
  -9.202  0.1377E-84  0.2000E+02
  -9.192  0.1377E-84  0.2000E+02
  -9.182  0.1377E-84  0.2000E+02
  -9.172  0.1377E-84  0.2000E+02
  -9.162  0.1377E-84  0.2000E+02
  -9.152  0.1377E-84  0.2000E+02
  -9.142  0.1377E-84  0.2000E+02
  -9.132  0.1377E-84  0.2000E+02
  -9.122  0.1377E-84  0.2000E+02
  -9.112  0.1377E-84  0.2000E+02
  -9.102  0.1377E-84  0.2000E+02
  -9.092  0.1377E-84  0.2000E+02
  -9.082  0.1377E-84  0.2000E+02
  -9.072  0.1377E-84  0.2000E+02
  -9.062  0.1377E-84  0.2000E+02
  -9.052  0.1377E-84  0.2000E+02
  -9.042  0.1377E-84  0.2000E+02
  -9.032  0.1377E-84  0.2000E+02
  -9.022  0.1377E-84  0.2000E+02
  -9.012  0.1377E-84  0.2000E+02
  -9.002  0.1377E-84  0.2000E+02
  -8.992  0.1377E-84  0.2000E+02
  -8.982  0.1377E-84  0.2000E+02
  -8.972  0.1377E-84  0.2000E+02
  -8.962  0.1377E-84  0.2000E+02
  -8.952  0.1377E-84  0.2000E+02
  -8.942  0.1377E-84  0.2000E+02
  -8.932  0.1377E-84  0.2000E+02
  -8.922  0.1377E-84  0.2000E+02
  -8.912  0.1377E-84  0.2000E+02
  -8.902  0.1377E-84  0.2000E+02
  -8.892  0.1377E-84  0.2000E+02
  -8.882  0.1377E-84  0.2000E+02
  -8.872  0.1377E-84  0.2000E+02
  -8.862  0.1377E-84  0.2000E+02
  -8.852  0.1377E-84  0.2000E+02
  -8.842  0.1377E-84  0.2000E+02
  -8.832  0.1377E-84  0.2000E+02
  -8.822  0.1377E-84  0.2000E+02
  -8.812  0.1377E-84  0.2000E+02
  -8.802  0.1377E-84  0.2000E+02
  -8.792  0.1377E-84  0.2000E+02
  -8.782  0.1377E-84  0.2000E+02
  -8.772  0.1377E-84  0.2000E+02
  -8.762  0.1377E-84  0.2000E+02
  -8.752  0.1377E-84  0.2000E+02
  -8.742  0.1377E-84  0.2000E+02
  -8.732  0.1377E-84  0.2000E+02
  -8.722  0.1377E-84  0.2000E+02
  -8.712  0.1377E-84  0.2000E+02
  -8.702  0.1377E-84  0.2000E+02
  -8.692  0.1377E-84  0.2000E+02
  -8.682  0.1377E-84  0.2000E+02
  -8.672  0.1377E-84  0.2000E+02
  -8.662  0.1377E-84  0.2000E+02
  -8.652  0.1377E-84  0.2000E+02
  -8.642  0.1377E-84  0.2000E+02
  -8.632  0.1377E-84  0.2000E+02
