#  E (eV)   dos(E)     Int dos(E) EFermi =   7.987 eV
 -14.866  0.5794E-03  0.5794E-05
 -14.856  0.6946E-03  0.1274E-04
 -14.846  0.8314E-03  0.2105E-04
 -14.836  0.9934E-03  0.3099E-04
 -14.826  0.1185E-02  0.4284E-04
 -14.816  0.1411E-02  0.5695E-04
 -14.806  0.1678E-02  0.7373E-04
 -14.796  0.1991E-02  0.9364E-04
 -14.786  0.2360E-02  0.1172E-03
 -14.776  0.2791E-02  0.1452E-03
 -14.766  0.3296E-02  0.1781E-03
 -14.756  0.3887E-02  0.2170E-03
 -14.746  0.4575E-02  0.2627E-03
 -14.736  0.5375E-02  0.3165E-03
 -14.726  0.6306E-02  0.3795E-03
 -14.716  0.7385E-02  0.4534E-03
 -14.706  0.8635E-02  0.5398E-03
 -14.696  0.1008E-01  0.6405E-03
 -14.686  0.1175E-01  0.7580E-03
 -14.676  0.1367E-01  0.8947E-03
 -14.666  0.1587E-01  0.1053E-02
 -14.656  0.1841E-01  0.1237E-02
 -14.646  0.2131E-01  0.1451E-02
 -14.636  0.2463E-01  0.1697E-02
 -14.626  0.2842E-01  0.1981E-02
 -14.616  0.3273E-01  0.2308E-02
 -14.606  0.3765E-01  0.2685E-02
 -14.596  0.4322E-01  0.3117E-02
 -14.586  0.4955E-01  0.3612E-02
 -14.576  0.5670E-01  0.4180E-02
 -14.566  0.6479E-01  0.4827E-02
 -14.556  0.7390E-01  0.5566E-02
 -14.546  0.8416E-01  0.6408E-02
 -14.536  0.9569E-01  0.7365E-02
 -14.526  0.1086E+00  0.8451E-02
 -14.516  0.1231E+00  0.9682E-02
 -14.506  0.1393E+00  0.1108E-01
 -14.496  0.1573E+00  0.1265E-01
 -14.486  0.1775E+00  0.1442E-01
 -14.476  0.1998E+00  0.1642E-01
 -14.466  0.2246E+00  0.1867E-01
 -14.456  0.2521E+00  0.2119E-01
 -14.446  0.2825E+00  0.2401E-01
 -14.436  0.3161E+00  0.2718E-01
 -14.426  0.3531E+00  0.3071E-01
 -14.416  0.3938E+00  0.3464E-01
 -14.406  0.4385E+00  0.3903E-01
 -14.396  0.4875E+00  0.4391E-01
 -14.386  0.5412E+00  0.4932E-01
 -14.376  0.5997E+00  0.5531E-01
 -14.366  0.6636E+00  0.6195E-01
 -14.356  0.7332E+00  0.6928E-01
 -14.346  0.8087E+00  0.7737E-01
 -14.336  0.8907E+00  0.8628E-01
 -14.326  0.9795E+00  0.9607E-01
 -14.316  0.1075E+01  0.1068E+00
 -14.306  0.1179E+01  0.1186E+00
 -14.296  0.1290E+01  0.1315E+00
 -14.286  0.1410E+01  0.1456E+00
 -14.276  0.1539E+01  0.1610E+00
 -14.266  0.1677E+01  0.1778E+00
 -14.256  0.1825E+01  0.1960E+00
 -14.246  0.1982E+01  0.2158E+00
 -14.236  0.2150E+01  0.2373E+00
 -14.226  0.2329E+01  0.2606E+00
 -14.216  0.2518E+01  0.2858E+00
 -14.206  0.2719E+01  0.3130E+00
 -14.196  0.2932E+01  0.3423E+00
 -14.186  0.3157E+01  0.3739E+00
 -14.176  0.3395E+01  0.4079E+00
 -14.166  0.3644E+01  0.4443E+00
 -14.156  0.3907E+01  0.4834E+00
 -14.146  0.4182E+01  0.5252E+00
 -14.136  0.4471E+01  0.5699E+00
 -14.126  0.4773E+01  0.6176E+00
 -14.116  0.5088E+01  0.6685E+00
 -14.106  0.5416E+01  0.7227E+00
 -14.096  0.5757E+01  0.7802E+00
 -14.086  0.6111E+01  0.8413E+00
 -14.076  0.6478E+01  0.9061E+00
 -14.066  0.6858E+01  0.9747E+00
 -14.056  0.7250E+01  0.1047E+01
 -14.046  0.7655E+01  0.1124E+01
 -14.036  0.8071E+01  0.1204E+01
 -14.026  0.8498E+01  0.1289E+01
 -14.016  0.8937E+01  0.1379E+01
 -14.006  0.9386E+01  0.1473E+01
 -13.996  0.9844E+01  0.1571E+01
 -13.986  0.1031E+02  0.1674E+01
 -13.976  0.1079E+02  0.1782E+01
 -13.966  0.1127E+02  0.1895E+01
 -13.956  0.1176E+02  0.2012E+01
 -13.946  0.1226E+02  0.2135E+01
 -13.936  0.1276E+02  0.2263E+01
 -13.926  0.1327E+02  0.2395E+01
 -13.916  0.1378E+02  0.2533E+01
 -13.906  0.1429E+02  0.2676E+01
 -13.896  0.1481E+02  0.2824E+01
 -13.886  0.1532E+02  0.2977E+01
 -13.876  0.1584E+02  0.3136E+01
 -13.866  0.1635E+02  0.3299E+01
 -13.856  0.1686E+02  0.3468E+01
 -13.846  0.1737E+02  0.3642E+01
 -13.836  0.1787E+02  0.3820E+01
 -13.826  0.1836E+02  0.4004E+01
 -13.816  0.1885E+02  0.4192E+01
 -13.806  0.1933E+02  0.4386E+01
 -13.796  0.1980E+02  0.4584E+01
 -13.786  0.2027E+02  0.4787E+01
 -13.776  0.2072E+02  0.4994E+01
 -13.766  0.2115E+02  0.5205E+01
 -13.756  0.2158E+02  0.5421E+01
 -13.746  0.2199E+02  0.5641E+01
 -13.736  0.2238E+02  0.5865E+01
 -13.726  0.2276E+02  0.6092E+01
 -13.716  0.2312E+02  0.6324E+01
 -13.706  0.2347E+02  0.6558E+01
 -13.696  0.2379E+02  0.6796E+01
 -13.686  0.2410E+02  0.7037E+01
 -13.676  0.2438E+02  0.7281E+01
 -13.666  0.2464E+02  0.7527E+01
 -13.656  0.2489E+02  0.7776E+01
 -13.646  0.2511E+02  0.8027E+01
 -13.636  0.2530E+02  0.8280E+01
 -13.626  0.2548E+02  0.8535E+01
 -13.616  0.2563E+02  0.8791E+01
 -13.606  0.2575E+02  0.9049E+01
 -13.596  0.2586E+02  0.9307E+01
 -13.586  0.2593E+02  0.9567E+01
 -13.576  0.2598E+02  0.9827E+01
 -13.566  0.2601E+02  0.1009E+02
 -13.556  0.2601E+02  0.1035E+02
 -13.546  0.2599E+02  0.1061E+02
 -13.536  0.2594E+02  0.1087E+02
 -13.526  0.2586E+02  0.1112E+02
 -13.516  0.2576E+02  0.1138E+02
 -13.506  0.2564E+02  0.1164E+02
 -13.496  0.2549E+02  0.1189E+02
 -13.486  0.2531E+02  0.1215E+02
 -13.476  0.2511E+02  0.1240E+02
 -13.466  0.2489E+02  0.1265E+02
 -13.456  0.2464E+02  0.1289E+02
 -13.446  0.2438E+02  0.1314E+02
 -13.436  0.2409E+02  0.1338E+02
 -13.426  0.2377E+02  0.1362E+02
 -13.416  0.2344E+02  0.1385E+02
 -13.406  0.2309E+02  0.1408E+02
 -13.396  0.2272E+02  0.1431E+02
 -13.386  0.2233E+02  0.1453E+02
 -13.376  0.2192E+02  0.1475E+02
 -13.366  0.2150E+02  0.1497E+02
 -13.356  0.2106E+02  0.1518E+02
 -13.346  0.2061E+02  0.1538E+02
 -13.336  0.2015E+02  0.1558E+02
 -13.326  0.1967E+02  0.1578E+02
 -13.316  0.1918E+02  0.1597E+02
 -13.306  0.1869E+02  0.1616E+02
 -13.296  0.1818E+02  0.1634E+02
 -13.286  0.1767E+02  0.1652E+02
 -13.276  0.1715E+02  0.1669E+02
 -13.266  0.1663E+02  0.1686E+02
 -13.256  0.1610E+02  0.1702E+02
 -13.246  0.1557E+02  0.1717E+02
 -13.236  0.1504E+02  0.1732E+02
 -13.226  0.1451E+02  0.1747E+02
 -13.216  0.1398E+02  0.1761E+02
 -13.206  0.1346E+02  0.1774E+02
 -13.196  0.1294E+02  0.1787E+02
 -13.186  0.1242E+02  0.1800E+02
 -13.176  0.1191E+02  0.1811E+02
 -13.166  0.1140E+02  0.1823E+02
 -13.156  0.1090E+02  0.1834E+02
 -13.146  0.1041E+02  0.1844E+02
 -13.136  0.9927E+01  0.1854E+02
 -13.126  0.9455E+01  0.1864E+02
 -13.116  0.8993E+01  0.1873E+02
 -13.106  0.8542E+01  0.1881E+02
 -13.096  0.8103E+01  0.1889E+02
 -13.086  0.7676E+01  0.1897E+02
 -13.076  0.7262E+01  0.1904E+02
 -13.066  0.6860E+01  0.1911E+02
 -13.056  0.6472E+01  0.1917E+02
 -13.046  0.6097E+01  0.1924E+02
 -13.036  0.5735E+01  0.1929E+02
 -13.026  0.5388E+01  0.1935E+02
 -13.016  0.5054E+01  0.1940E+02
 -13.006  0.4735E+01  0.1944E+02
 -12.996  0.4429E+01  0.1949E+02
 -12.986  0.4137E+01  0.1953E+02
 -12.976  0.3858E+01  0.1957E+02
 -12.966  0.3593E+01  0.1960E+02
 -12.956  0.3342E+01  0.1964E+02
 -12.946  0.3103E+01  0.1967E+02
 -12.936  0.2877E+01  0.1970E+02
 -12.926  0.2664E+01  0.1972E+02
 -12.916  0.2463E+01  0.1975E+02
 -12.906  0.2274E+01  0.1977E+02
 -12.896  0.2096E+01  0.1979E+02
 -12.886  0.1929E+01  0.1981E+02
 -12.876  0.1773E+01  0.1983E+02
 -12.866  0.1626E+01  0.1985E+02
 -12.856  0.1490E+01  0.1986E+02
 -12.846  0.1363E+01  0.1987E+02
 -12.836  0.1245E+01  0.1989E+02
 -12.826  0.1136E+01  0.1990E+02
 -12.816  0.1034E+01  0.1991E+02
 -12.806  0.9401E+00  0.1992E+02
 -12.796  0.8535E+00  0.1993E+02
 -12.786  0.7736E+00  0.1993E+02
 -12.776  0.7001E+00  0.1994E+02
 -12.766  0.6326E+00  0.1995E+02
 -12.756  0.5707E+00  0.1995E+02
 -12.746  0.5140E+00  0.1996E+02
 -12.736  0.4623E+00  0.1996E+02
 -12.726  0.4151E+00  0.1997E+02
 -12.716  0.3721E+00  0.1997E+02
 -12.706  0.3331E+00  0.1997E+02
 -12.696  0.2977E+00  0.1998E+02
 -12.686  0.2656E+00  0.1998E+02
 -12.676  0.2366E+00  0.1998E+02
 -12.666  0.2104E+00  0.1998E+02
 -12.656  0.1869E+00  0.1999E+02
 -12.646  0.1657E+00  0.1999E+02
 -12.636  0.1466E+00  0.1999E+02
 -12.626  0.1296E+00  0.1999E+02
 -12.616  0.1143E+00  0.1999E+02
 -12.606  0.1007E+00  0.1999E+02
 -12.596  0.8858E-01  0.1999E+02
 -12.586  0.7778E-01  0.1999E+02
 -12.576  0.6818E-01  0.2000E+02
 -12.566  0.5967E-01  0.2000E+02
 -12.556  0.5214E-01  0.2000E+02
 -12.546  0.4549E-01  0.2000E+02
 -12.536  0.3962E-01  0.2000E+02
 -12.526  0.3445E-01  0.2000E+02
 -12.516  0.2990E-01  0.2000E+02
 -12.506  0.2592E-01  0.2000E+02
 -12.496  0.2243E-01  0.2000E+02
 -12.486  0.1937E-01  0.2000E+02
 -12.476  0.1671E-01  0.2000E+02
 -12.466  0.1439E-01  0.2000E+02
 -12.456  0.1237E-01  0.2000E+02
 -12.446  0.1061E-01  0.2000E+02
 -12.436  0.9092E-02  0.2000E+02
 -12.426  0.7777E-02  0.2000E+02
 -12.416  0.6641E-02  0.2000E+02
 -12.406  0.5662E-02  0.2000E+02
 -12.396  0.4819E-02  0.2000E+02
 -12.386  0.4095E-02  0.2000E+02
 -12.376  0.3474E-02  0.2000E+02
 -12.366  0.2942E-02  0.2000E+02
 -12.356  0.2487E-02  0.2000E+02
 -12.346  0.2100E-02  0.2000E+02
 -12.336  0.1769E-02  0.2000E+02
 -12.326  0.1489E-02  0.2000E+02
 -12.316  0.1250E-02  0.2000E+02
 -12.306  0.1048E-02  0.2000E+02
 -12.296  0.8775E-03  0.2000E+02
 -12.286  0.7333E-03  0.2000E+02
 -12.276  0.6118E-03  0.2000E+02
 -12.266  0.5096E-03  0.2000E+02
 -12.256  0.4237E-03  0.2000E+02
 -12.246  0.3517E-03  0.2000E+02
 -12.236  0.2915E-03  0.2000E+02
 -12.226  0.2412E-03  0.2000E+02
 -12.216  0.1992E-03  0.2000E+02
 -12.206  0.1642E-03  0.2000E+02
 -12.196  0.1352E-03  0.2000E+02
 -12.186  0.1111E-03  0.2000E+02
 -12.176  0.9116E-04  0.2000E+02
 -12.166  0.7466E-04  0.2000E+02
 -12.156  0.6105E-04  0.2000E+02
 -12.146  0.4983E-04  0.2000E+02
 -12.136  0.4061E-04  0.2000E+02
 -12.126  0.3304E-04  0.2000E+02
 -12.116  0.2683E-04  0.2000E+02
 -12.106  0.2175E-04  0.2000E+02
 -12.096  0.1761E-04  0.2000E+02
 -12.086  0.1423E-04  0.2000E+02
 -12.076  0.1148E-04  0.2000E+02
 -12.066  0.9244E-05  0.2000E+02
 -12.056  0.7432E-05  0.2000E+02
 -12.046  0.5965E-05  0.2000E+02
 -12.036  0.4779E-05  0.2000E+02
 -12.026  0.3823E-05  0.2000E+02
 -12.016  0.3053E-05  0.2000E+02
 -12.006  0.2434E-05  0.2000E+02
 -11.996  0.1937E-05  0.2000E+02
 -11.986  0.1539E-05  0.2000E+02
 -11.976  0.1221E-05  0.2000E+02
 -11.966  0.9664E-06  0.2000E+02
 -11.956  0.7639E-06  0.2000E+02
 -11.946  0.6028E-06  0.2000E+02
 -11.936  0.4749E-06  0.2000E+02
 -11.926  0.3735E-06  0.2000E+02
 -11.916  0.2932E-06  0.2000E+02
 -11.906  0.2298E-06  0.2000E+02
 -11.896  0.1798E-06  0.2000E+02
 -11.886  0.1405E-06  0.2000E+02
 -11.876  0.1095E-06  0.2000E+02
 -11.866  0.8526E-07  0.2000E+02
 -11.856  0.6626E-07  0.2000E+02
 -11.846  0.5140E-07  0.2000E+02
 -11.836  0.3981E-07  0.2000E+02
 -11.826  0.3078E-07  0.2000E+02
 -11.816  0.2376E-07  0.2000E+02
 -11.806  0.1831E-07  0.2000E+02
 -11.796  0.1408E-07  0.2000E+02
 -11.786  0.1081E-07  0.2000E+02
 -11.776  0.8290E-08  0.2000E+02
 -11.766  0.6344E-08  0.2000E+02
 -11.756  0.4847E-08  0.2000E+02
 -11.746  0.3697E-08  0.2000E+02
 -11.736  0.2815E-08  0.2000E+02
 -11.726  0.2139E-08  0.2000E+02
 -11.716  0.1623E-08  0.2000E+02
 -11.706  0.1230E-08  0.2000E+02
 -11.696  0.9299E-09  0.2000E+02
 -11.686  0.7020E-09  0.2000E+02
 -11.676  0.5291E-09  0.2000E+02
 -11.666  0.3980E-09  0.2000E+02
 -11.656  0.2989E-09  0.2000E+02
 -11.646  0.2241E-09  0.2000E+02
 -11.636  0.1678E-09  0.2000E+02
 -11.626  0.1254E-09  0.2000E+02
 -11.616  0.9351E-10  0.2000E+02
 -11.606  0.6963E-10  0.2000E+02
 -11.596  0.5176E-10  0.2000E+02
 -11.586  0.3841E-10  0.2000E+02
 -11.576  0.2846E-10  0.2000E+02
 -11.566  0.2105E-10  0.2000E+02
 -11.556  0.1554E-10  0.2000E+02
 -11.546  0.1145E-10  0.2000E+02
 -11.536  0.8427E-11  0.2000E+02
 -11.526  0.6190E-11  0.2000E+02
 -11.516  0.4539E-11  0.2000E+02
 -11.506  0.3323E-11  0.2000E+02
 -11.496  0.2428E-11  0.2000E+02
 -11.486  0.1771E-11  0.2000E+02
 -11.476  0.1290E-11  0.2000E+02
 -11.466  0.9379E-12  0.2000E+02
 -11.456  0.6807E-12  0.2000E+02
 -11.446  0.4932E-12  0.2000E+02
 -11.436  0.3567E-12  0.2000E+02
 -11.426  0.2576E-12  0.2000E+02
 -11.416  0.1856E-12  0.2000E+02
 -11.406  0.1336E-12  0.2000E+02
 -11.396  0.9596E-13  0.2000E+02
 -11.386  0.6882E-13  0.2000E+02
 -11.376  0.4926E-13  0.2000E+02
 -11.366  0.3521E-13  0.2000E+02
 -11.356  0.2512E-13  0.2000E+02
 -11.346  0.1789E-13  0.2000E+02
 -11.336  0.1272E-13  0.2000E+02
 -11.326  0.9027E-14  0.2000E+02
 -11.316  0.6396E-14  0.2000E+02
 -11.306  0.4524E-14  0.2000E+02
 -11.296  0.3195E-14  0.2000E+02
 -11.286  0.2252E-14  0.2000E+02
 -11.276  0.1585E-14  0.2000E+02
 -11.266  0.1113E-14  0.2000E+02
 -11.256  0.7807E-15  0.2000E+02
 -11.246  0.5466E-15  0.2000E+02
 -11.236  0.3820E-15  0.2000E+02
 -11.226  0.2665E-15  0.2000E+02
 -11.216  0.1856E-15  0.2000E+02
 -11.206  0.1291E-15  0.2000E+02
 -11.196  0.8958E-16  0.2000E+02
 -11.186  0.6207E-16  0.2000E+02
 -11.176  0.4294E-16  0.2000E+02
 -11.166  0.2965E-16  0.2000E+02
 -11.156  0.2044E-16  0.2000E+02
 -11.146  0.1407E-16  0.2000E+02
 -11.136  0.9662E-17  0.2000E+02
 -11.126  0.6626E-17  0.2000E+02
 -11.116  0.4537E-17  0.2000E+02
 -11.106  0.3101E-17  0.2000E+02
 -11.096  0.2115E-17  0.2000E+02
 -11.086  0.1441E-17  0.2000E+02
 -11.076  0.9797E-18  0.2000E+02
 -11.066  0.6650E-18  0.2000E+02
 -11.056  0.4506E-18  0.2000E+02
 -11.046  0.3048E-18  0.2000E+02
 -11.036  0.2058E-18  0.2000E+02
 -11.026  0.1387E-18  0.2000E+02
 -11.016  0.9337E-19  0.2000E+02
 -11.006  0.6272E-19  0.2000E+02
 -10.996  0.4207E-19  0.2000E+02
 -10.986  0.2816E-19  0.2000E+02
 -10.976  0.1882E-19  0.2000E+02
 -10.966  0.1256E-19  0.2000E+02
 -10.956  0.8364E-20  0.2000E+02
 -10.946  0.5561E-20  0.2000E+02
 -10.936  0.3691E-20  0.2000E+02
 -10.926  0.2446E-20  0.2000E+02
 -10.916  0.1618E-20  0.2000E+02
 -10.906  0.1068E-20  0.2000E+02
 -10.896  0.7043E-21  0.2000E+02
 -10.886  0.4635E-21  0.2000E+02
 -10.876  0.3045E-21  0.2000E+02
 -10.866  0.1997E-21  0.2000E+02
 -10.856  0.1307E-21  0.2000E+02
 -10.846  0.8544E-22  0.2000E+02
 -10.836  0.5575E-22  0.2000E+02
 -10.826  0.3631E-22  0.2000E+02
 -10.816  0.2361E-22  0.2000E+02
 -10.806  0.1532E-22  0.2000E+02
 -10.796  0.9929E-23  0.2000E+02
 -10.786  0.6423E-23  0.2000E+02
 -10.776  0.4147E-23  0.2000E+02
 -10.766  0.2673E-23  0.2000E+02
 -10.756  0.1720E-23  0.2000E+02
 -10.746  0.1105E-23  0.2000E+02
 -10.736  0.7088E-24  0.2000E+02
 -10.726  0.4538E-24  0.2000E+02
 -10.716  0.2900E-24  0.2000E+02
 -10.706  0.1850E-24  0.2000E+02
 -10.696  0.1178E-24  0.2000E+02
 -10.686  0.7493E-25  0.2000E+02
 -10.676  0.4756E-25  0.2000E+02
 -10.666  0.3013E-25  0.2000E+02
 -10.656  0.1906E-25  0.2000E+02
 -10.646  0.1204E-25  0.2000E+02
 -10.636  0.7587E-26  0.2000E+02
 -10.626  0.4774E-26  0.2000E+02
 -10.616  0.2999E-26  0.2000E+02
 -10.606  0.1881E-26  0.2000E+02
 -10.596  0.1177E-26  0.2000E+02
 -10.586  0.7359E-27  0.2000E+02
 -10.576  0.4591E-27  0.2000E+02
 -10.566  0.2859E-27  0.2000E+02
 -10.556  0.1778E-27  0.2000E+02
 -10.546  0.1103E-27  0.2000E+02
 -10.536  0.6836E-28  0.2000E+02
 -10.526  0.4229E-28  0.2000E+02
 -10.516  0.2611E-28  0.2000E+02
 -10.506  0.1609E-28  0.2000E+02
 -10.496  0.9904E-29  0.2000E+02
 -10.486  0.6084E-29  0.2000E+02
 -10.476  0.3731E-29  0.2000E+02
 -10.466  0.2284E-29  0.2000E+02
 -10.456  0.1396E-29  0.2000E+02
 -10.446  0.8515E-30  0.2000E+02
 -10.436  0.5186E-30  0.2000E+02
 -10.426  0.3153E-30  0.2000E+02
 -10.416  0.1914E-30  0.2000E+02
 -10.406  0.1159E-30  0.2000E+02
 -10.396  0.7012E-31  0.2000E+02
 -10.386  0.4234E-31  0.2000E+02
 -10.376  0.2552E-31  0.2000E+02
 -10.366  0.1536E-31  0.2000E+02
 -10.356  0.9225E-32  0.2000E+02
 -10.346  0.5532E-32  0.2000E+02
 -10.336  0.3311E-32  0.2000E+02
 -10.326  0.1979E-32  0.2000E+02
 -10.316  0.1180E-32  0.2000E+02
 -10.306  0.7030E-33  0.2000E+02
 -10.296  0.4180E-33  0.2000E+02
 -10.286  0.2481E-33  0.2000E+02
 -10.276  0.1470E-33  0.2000E+02
 -10.266  0.8692E-34  0.2000E+02
 -10.256  0.5132E-34  0.2000E+02
 -10.246  0.3025E-34  0.2000E+02
 -10.236  0.1780E-34  0.2000E+02
 -10.226  0.1045E-34  0.2000E+02
 -10.216  0.6130E-35  0.2000E+02
 -10.206  0.3588E-35  0.2000E+02
 -10.196  0.2097E-35  0.2000E+02
 -10.186  0.1223E-35  0.2000E+02
 -10.176  0.7123E-36  0.2000E+02
 -10.166  0.4141E-36  0.2000E+02
 -10.156  0.2403E-36  0.2000E+02
 -10.146  0.1392E-36  0.2000E+02
 -10.136  0.8052E-37  0.2000E+02
 -10.126  0.4649E-37  0.2000E+02
 -10.116  0.2679E-37  0.2000E+02
 -10.106  0.1542E-37  0.2000E+02
 -10.096  0.8855E-38  0.2000E+02
 -10.086  0.5077E-38  0.2000E+02
 -10.076  0.2906E-38  0.2000E+02
 -10.066  0.1661E-38  0.2000E+02
 -10.056  0.9473E-39  0.2000E+02
 -10.046  0.5394E-39  0.2000E+02
 -10.036  0.3066E-39  0.2000E+02
 -10.026  0.1740E-39  0.2000E+02
 -10.016  0.9858E-40  0.2000E+02
 -10.006  0.5575E-40  0.2000E+02
  -9.996  0.3147E-40  0.2000E+02
  -9.986  0.1774E-40  0.2000E+02
  -9.976  0.9980E-41  0.2000E+02
  -9.966  0.5605E-41  0.2000E+02
  -9.956  0.3143E-41  0.2000E+02
  -9.946  0.1759E-41  0.2000E+02
  -9.936  0.9829E-42  0.2000E+02
  -9.926  0.5482E-42  0.2000E+02
  -9.916  0.3053E-42  0.2000E+02
  -9.906  0.1697E-42  0.2000E+02
  -9.896  0.9417E-43  0.2000E+02
  -9.886  0.5216E-43  0.2000E+02
  -9.876  0.2885E-43  0.2000E+02
  -9.866  0.1592E-43  0.2000E+02
  -9.856  0.8776E-44  0.2000E+02
  -9.846  0.4828E-44  0.2000E+02
  -9.836  0.2652E-44  0.2000E+02
  -9.826  0.1454E-44  0.2000E+02
  -9.816  0.7957E-45  0.2000E+02
  -9.806  0.4347E-45  0.2000E+02
  -9.796  0.2371E-45  0.2000E+02
  -9.786  0.1291E-45  0.2000E+02
  -9.776  0.7018E-46  0.2000E+02
  -9.766  0.3808E-46  0.2000E+02
  -9.756  0.2063E-46  0.2000E+02
  -9.746  0.1115E-46  0.2000E+02
  -9.736  0.6021E-47  0.2000E+02
  -9.726  0.3245E-47  0.2000E+02
  -9.716  0.1746E-47  0.2000E+02
  -9.706  0.9374E-48  0.2000E+02
  -9.696  0.5026E-48  0.2000E+02
  -9.686  0.2690E-48  0.2000E+02
  -9.676  0.1437E-48  0.2000E+02
  -9.666  0.7664E-49  0.2000E+02
  -9.656  0.4080E-49  0.2000E+02
  -9.646  0.2169E-49  0.2000E+02
  -9.636  0.1151E-49  0.2000E+02
  -9.626  0.6095E-50  0.2000E+02
  -9.616  0.3223E-50  0.2000E+02
  -9.606  0.1701E-50  0.2000E+02
  -9.596  0.8965E-51  0.2000E+02
  -9.586  0.4716E-51  0.2000E+02
  -9.576  0.2476E-51  0.2000E+02
  -9.566  0.1298E-51  0.2000E+02
  -9.556  0.6794E-52  0.2000E+02
  -9.546  0.3549E-52  0.2000E+02
  -9.536  0.1851E-52  0.2000E+02
  -9.526  0.9636E-53  0.2000E+02
  -9.516  0.5008E-53  0.2000E+02
  -9.506  0.2598E-53  0.2000E+02
  -9.496  0.1346E-53  0.2000E+02
  -9.486  0.6959E-54  0.2000E+02
  -9.476  0.3592E-54  0.2000E+02
  -9.466  0.1851E-54  0.2000E+02
  -9.456  0.9520E-55  0.2000E+02
  -9.446  0.4888E-55  0.2000E+02
  -9.436  0.2506E-55  0.2000E+02
  -9.426  0.1282E-55  0.2000E+02
  -9.416  0.6550E-56  0.2000E+02
  -9.406  0.3340E-56  0.2000E+02
  -9.396  0.1701E-56  0.2000E+02
  -9.386  0.8642E-57  0.2000E+02
  -9.376  0.4385E-57  0.2000E+02
  -9.366  0.2221E-57  0.2000E+02
  -9.356  0.1123E-57  0.2000E+02
  -9.346  0.5666E-58  0.2000E+02
  -9.336  0.2855E-58  0.2000E+02
  -9.326  0.1436E-58  0.2000E+02
  -9.316  0.7210E-59  0.2000E+02
  -9.306  0.3614E-59  0.2000E+02
  -9.296  0.1808E-59  0.2000E+02
  -9.286  0.9033E-60  0.2000E+02
  -9.276  0.4505E-60  0.2000E+02
  -9.266  0.2242E-60  0.2000E+02
  -9.256  0.1114E-60  0.2000E+02
  -9.246  0.5528E-61  0.2000E+02
  -9.236  0.2738E-61  0.2000E+02
  -9.226  0.1353E-61  0.2000E+02
  -9.216  0.6679E-62  0.2000E+02
  -9.206  0.3291E-62  0.2000E+02
  -9.196  0.1619E-62  0.2000E+02
  -9.186  0.7947E-63  0.2000E+02
  -9.176  0.3895E-63  0.2000E+02
  -9.166  0.1906E-63  0.2000E+02
  -9.156  0.9308E-64  0.2000E+02
  -9.146  0.4539E-64  0.2000E+02
  -9.136  0.2209E-64  0.2000E+02
  -9.126  0.1074E-64  0.2000E+02
  -9.116  0.5208E-65  0.2000E+02
  -9.106  0.2522E-65  0.2000E+02
  -9.096  0.1219E-65  0.2000E+02
  -9.086  0.5883E-66  0.2000E+02
  -9.076  0.2834E-66  0.2000E+02
  -9.066  0.1363E-66  0.2000E+02
  -9.056  0.6544E-67  0.2000E+02
  -9.046  0.3136E-67  0.2000E+02
  -9.036  0.1501E-67  0.2000E+02
  -9.026  0.7167E-68  0.2000E+02
  -9.016  0.3417E-68  0.2000E+02
  -9.006  0.1626E-68  0.2000E+02
  -8.996  0.7728E-69  0.2000E+02
  -8.986  0.3666E-69  0.2000E+02
  -8.976  0.1736E-69  0.2000E+02
  -8.966  0.8205E-70  0.2000E+02
  -8.956  0.3872E-70  0.2000E+02
  -8.946  0.1824E-70  0.2000E+02
  -8.936  0.8577E-71  0.2000E+02
  -8.926  0.4026E-71  0.2000E+02
  -8.916  0.1887E-71  0.2000E+02
  -8.906  0.8828E-72  0.2000E+02
  -8.896  0.4123E-72  0.2000E+02
  -8.886  0.1922E-72  0.2000E+02
  -8.876  0.8946E-73  0.2000E+02
  -8.866  0.4156E-73  0.2000E+02
  -8.856  0.1928E-73  0.2000E+02
  -8.846  0.8926E-74  0.2000E+02
  -8.836  0.4126E-74  0.2000E+02
