#  E (eV)   dos(E)     Int dos(E) EFermi =  17.688 eV
  -9.644  0.6719E-06  0.6719E-08
  -9.634  0.7374E-06  0.1409E-07
  -9.624  0.8089E-06  0.2218E-07
  -9.614  0.8870E-06  0.3105E-07
  -9.604  0.9723E-06  0.4078E-07
  -9.594  0.1065E-05  0.5143E-07
  -9.584  0.1167E-05  0.6310E-07
  -9.574  0.1278E-05  0.7587E-07
  -9.564  0.1398E-05  0.8986E-07
  -9.554  0.1530E-05  0.1052E-06
  -9.544  0.1673E-05  0.1219E-06
  -9.534  0.1829E-05  0.1402E-06
  -9.524  0.1998E-05  0.1601E-06
  -9.514  0.2183E-05  0.1820E-06
  -9.504  0.2383E-05  0.2058E-06
  -9.494  0.2601E-05  0.2318E-06
  -9.484  0.2838E-05  0.2602E-06
  -9.474  0.3095E-05  0.2912E-06
  -9.464  0.3375E-05  0.3249E-06
  -9.454  0.3678E-05  0.3617E-06
  -9.444  0.4006E-05  0.4017E-06
  -9.434  0.4363E-05  0.4454E-06
  -9.424  0.4749E-05  0.4929E-06
  -9.414  0.5167E-05  0.5445E-06
  -9.404  0.5621E-05  0.6007E-06
  -9.394  0.6111E-05  0.6618E-06
  -9.384  0.6642E-05  0.7283E-06
  -9.374  0.7216E-05  0.8004E-06
  -9.364  0.7837E-05  0.8788E-06
  -9.354  0.8508E-05  0.9639E-06
  -9.344  0.9233E-05  0.1056E-05
  -9.334  0.1002E-04  0.1156E-05
  -9.324  0.1086E-04  0.1265E-05
  -9.314  0.1177E-04  0.1383E-05
  -9.304  0.1276E-04  0.1510E-05
  -9.294  0.1382E-04  0.1648E-05
  -9.284  0.1496E-04  0.1798E-05
  -9.274  0.1619E-04  0.1960E-05
  -9.264  0.1752E-04  0.2135E-05
  -9.254  0.1895E-04  0.2325E-05
  -9.244  0.2048E-04  0.2530E-05
  -9.234  0.2214E-04  0.2751E-05
  -9.224  0.2391E-04  0.2990E-05
  -9.214  0.2582E-04  0.3248E-05
  -9.204  0.2787E-04  0.3527E-05
  -9.194  0.3008E-04  0.3828E-05
  -9.184  0.3244E-04  0.4152E-05
  -9.174  0.3498E-04  0.4502E-05
  -9.164  0.3770E-04  0.4879E-05
  -9.154  0.4062E-04  0.5285E-05
  -9.144  0.4375E-04  0.5723E-05
  -9.134  0.4711E-04  0.6194E-05
  -9.124  0.5070E-04  0.6701E-05
  -9.114  0.5454E-04  0.7246E-05
  -9.104  0.5865E-04  0.7833E-05
  -9.094  0.6305E-04  0.8463E-05
  -9.084  0.6775E-04  0.9141E-05
  -9.074  0.7278E-04  0.9869E-05
  -9.064  0.7815E-04  0.1065E-04
  -9.054  0.8389E-04  0.1149E-04
  -9.044  0.9001E-04  0.1239E-04
  -9.034  0.9655E-04  0.1335E-04
  -9.024  0.1035E-03  0.1439E-04
  -9.014  0.1110E-03  0.1550E-04
  -9.004  0.1189E-03  0.1669E-04
  -8.994  0.1273E-03  0.1796E-04
  -8.984  0.1363E-03  0.1932E-04
  -8.974  0.1459E-03  0.2078E-04
  -8.964  0.1561E-03  0.2234E-04
  -8.954  0.1669E-03  0.2401E-04
  -8.944  0.1784E-03  0.2580E-04
  -8.934  0.1907E-03  0.2770E-04
  -8.924  0.2037E-03  0.2974E-04
  -8.914  0.2175E-03  0.3191E-04
  -8.904  0.2321E-03  0.3424E-04
  -8.894  0.2477E-03  0.3671E-04
  -8.884  0.2642E-03  0.3936E-04
  -8.874  0.2817E-03  0.4217E-04
  -8.864  0.3003E-03  0.4518E-04
  -8.854  0.3200E-03  0.4838E-04
  -8.844  0.3408E-03  0.5178E-04
  -8.834  0.3628E-03  0.5541E-04
  -8.824  0.3862E-03  0.5927E-04
  -8.814  0.4108E-03  0.6338E-04
  -8.804  0.4369E-03  0.6775E-04
  -8.794  0.4645E-03  0.7240E-04
  -8.784  0.4937E-03  0.7733E-04
  -8.774  0.5245E-03  0.8258E-04
  -8.764  0.5570E-03  0.8815E-04
  -8.754  0.5913E-03  0.9406E-04
  -8.744  0.6275E-03  0.1003E-03
  -8.734  0.6656E-03  0.1070E-03
  -8.724  0.7059E-03  0.1141E-03
  -8.714  0.7483E-03  0.1215E-03
  -8.704  0.7929E-03  0.1295E-03
  -8.694  0.8399E-03  0.1379E-03
  -8.684  0.8894E-03  0.1468E-03
  -8.674  0.9414E-03  0.1562E-03
  -8.664  0.9962E-03  0.1661E-03
  -8.654  0.1054E-02  0.1767E-03
  -8.644  0.1114E-02  0.1878E-03
  -8.634  0.1178E-02  0.1996E-03
  -8.624  0.1244E-02  0.2120E-03
  -8.614  0.1314E-02  0.2252E-03
  -8.604  0.1388E-02  0.2390E-03
  -8.594  0.1465E-02  0.2537E-03
  -8.584  0.1545E-02  0.2691E-03
  -8.574  0.1630E-02  0.2854E-03
  -8.564  0.1718E-02  0.3026E-03
  -8.554  0.1811E-02  0.3207E-03
  -8.544  0.1908E-02  0.3398E-03
  -8.534  0.2010E-02  0.3599E-03
  -8.524  0.2116E-02  0.3811E-03
  -8.514  0.2227E-02  0.4033E-03
  -8.504  0.2343E-02  0.4268E-03
  -8.494  0.2464E-02  0.4514E-03
  -8.484  0.2590E-02  0.4773E-03
  -8.474  0.2722E-02  0.5045E-03
  -8.464  0.2860E-02  0.5331E-03
  -8.454  0.3004E-02  0.5632E-03
  -8.444  0.3154E-02  0.5947E-03
  -8.434  0.3310E-02  0.6278E-03
  -8.424  0.3472E-02  0.6625E-03
  -8.414  0.3641E-02  0.6990E-03
  -8.404  0.3817E-02  0.7371E-03
  -8.394  0.4001E-02  0.7771E-03
  -8.384  0.4191E-02  0.8190E-03
  -8.374  0.4389E-02  0.8629E-03
  -8.364  0.4595E-02  0.9089E-03
  -8.354  0.4809E-02  0.9570E-03
  -8.344  0.5031E-02  0.1007E-02
  -8.334  0.5261E-02  0.1060E-02
  -8.324  0.5500E-02  0.1115E-02
  -8.314  0.5748E-02  0.1172E-02
  -8.304  0.6005E-02  0.1232E-02
  -8.294  0.6272E-02  0.1295E-02
  -8.284  0.6548E-02  0.1361E-02
  -8.274  0.6833E-02  0.1429E-02
  -8.264  0.7129E-02  0.1500E-02
  -8.254  0.7435E-02  0.1575E-02
  -8.244  0.7751E-02  0.1652E-02
  -8.234  0.8078E-02  0.1733E-02
  -8.224  0.8416E-02  0.1817E-02
  -8.214  0.8765E-02  0.1905E-02
  -8.204  0.9125E-02  0.1996E-02
  -8.194  0.9497E-02  0.2091E-02
  -8.184  0.9881E-02  0.2190E-02
  -8.174  0.1028E-01  0.2293E-02
  -8.164  0.1069E-01  0.2399E-02
  -8.154  0.1111E-01  0.2510E-02
  -8.144  0.1154E-01  0.2626E-02
  -8.134  0.1198E-01  0.2746E-02
  -8.124  0.1244E-01  0.2870E-02
  -8.114  0.1292E-01  0.2999E-02
  -8.104  0.1340E-01  0.3133E-02
  -8.094  0.1390E-01  0.3272E-02
  -8.084  0.1441E-01  0.3416E-02
  -8.074  0.1494E-01  0.3566E-02
  -8.064  0.1548E-01  0.3721E-02
  -8.054  0.1604E-01  0.3881E-02
  -8.044  0.1661E-01  0.4047E-02
  -8.034  0.1719E-01  0.4219E-02
  -8.024  0.1779E-01  0.4397E-02
  -8.014  0.1841E-01  0.4581E-02
  -8.004  0.1904E-01  0.4771E-02
  -7.994  0.1968E-01  0.4968E-02
  -7.984  0.2034E-01  0.5172E-02
  -7.974  0.2101E-01  0.5382E-02
  -7.964  0.2170E-01  0.5599E-02
  -7.954  0.2241E-01  0.5823E-02
  -7.944  0.2313E-01  0.6054E-02
  -7.934  0.2387E-01  0.6293E-02
  -7.924  0.2462E-01  0.6539E-02
  -7.914  0.2539E-01  0.6793E-02
  -7.904  0.2617E-01  0.7055E-02
  -7.894  0.2697E-01  0.7324E-02
  -7.884  0.2779E-01  0.7602E-02
  -7.874  0.2862E-01  0.7888E-02
  -7.864  0.2946E-01  0.8183E-02
  -7.854  0.3032E-01  0.8486E-02
  -7.844  0.3120E-01  0.8798E-02
  -7.834  0.3210E-01  0.9119E-02
  -7.824  0.3300E-01  0.9449E-02
  -7.814  0.3393E-01  0.9788E-02
  -7.804  0.3487E-01  0.1014E-01
  -7.794  0.3582E-01  0.1050E-01
  -7.784  0.3679E-01  0.1086E-01
  -7.774  0.3778E-01  0.1124E-01
  -7.764  0.3878E-01  0.1163E-01
  -7.754  0.3979E-01  0.1203E-01
  -7.744  0.4082E-01  0.1243E-01
  -7.734  0.4186E-01  0.1285E-01
  -7.724  0.4292E-01  0.1328E-01
  -7.714  0.4399E-01  0.1372E-01
  -7.704  0.4508E-01  0.1417E-01
  -7.694  0.4618E-01  0.1464E-01
  -7.684  0.4729E-01  0.1511E-01
  -7.674  0.4842E-01  0.1559E-01
  -7.664  0.4956E-01  0.1609E-01
  -7.654  0.5071E-01  0.1660E-01
  -7.644  0.5187E-01  0.1711E-01
  -7.634  0.5305E-01  0.1764E-01
  -7.624  0.5424E-01  0.1819E-01
  -7.614  0.5544E-01  0.1874E-01
  -7.604  0.5665E-01  0.1931E-01
  -7.594  0.5787E-01  0.1989E-01
  -7.584  0.5910E-01  0.2048E-01
  -7.574  0.6035E-01  0.2108E-01
  -7.564  0.6160E-01  0.2170E-01
  -7.554  0.6287E-01  0.2233E-01
  -7.544  0.6414E-01  0.2297E-01
  -7.534  0.6543E-01  0.2362E-01
  -7.524  0.6672E-01  0.2429E-01
  -7.514  0.6802E-01  0.2497E-01
  -7.504  0.6934E-01  0.2566E-01
  -7.494  0.7065E-01  0.2637E-01
  -7.484  0.7198E-01  0.2709E-01
  -7.474  0.7332E-01  0.2782E-01
  -7.464  0.7466E-01  0.2857E-01
  -7.454  0.7601E-01  0.2933E-01
  -7.444  0.7737E-01  0.3010E-01
  -7.434  0.7873E-01  0.3089E-01
  -7.424  0.8010E-01  0.3169E-01
  -7.414  0.8147E-01  0.3250E-01
  -7.404  0.8286E-01  0.3333E-01
  -7.394  0.8424E-01  0.3418E-01
  -7.384  0.8564E-01  0.3503E-01
  -7.374  0.8703E-01  0.3590E-01
  -7.364  0.8843E-01  0.3679E-01
  -7.354  0.8984E-01  0.3769E-01
  -7.344  0.9125E-01  0.3860E-01
  -7.334  0.9267E-01  0.3952E-01
  -7.324  0.9408E-01  0.4047E-01
  -7.314  0.9551E-01  0.4142E-01
  -7.304  0.9693E-01  0.4239E-01
  -7.294  0.9836E-01  0.4337E-01
  -7.284  0.9979E-01  0.4437E-01
  -7.274  0.1012E+00  0.4538E-01
  -7.264  0.1027E+00  0.4641E-01
  -7.254  0.1041E+00  0.4745E-01
  -7.244  0.1055E+00  0.4851E-01
  -7.234  0.1070E+00  0.4958E-01
  -7.224  0.1084E+00  0.5066E-01
  -7.214  0.1099E+00  0.5176E-01
  -7.204  0.1113E+00  0.5287E-01
  -7.194  0.1128E+00  0.5400E-01
  -7.184  0.1142E+00  0.5514E-01
  -7.174  0.1157E+00  0.5630E-01
  -7.164  0.1171E+00  0.5747E-01
  -7.154  0.1186E+00  0.5866E-01
  -7.144  0.1200E+00  0.5986E-01
  -7.134  0.1215E+00  0.6107E-01
  -7.124  0.1230E+00  0.6230E-01
  -7.114  0.1244E+00  0.6355E-01
  -7.104  0.1259E+00  0.6481E-01
  -7.094  0.1273E+00  0.6608E-01
  -7.084  0.1288E+00  0.6737E-01
  -7.074  0.1303E+00  0.6867E-01
  -7.064  0.1317E+00  0.6999E-01
  -7.054  0.1332E+00  0.7132E-01
  -7.044  0.1346E+00  0.7266E-01
  -7.034  0.1361E+00  0.7403E-01
  -7.024  0.1375E+00  0.7540E-01
  -7.014  0.1390E+00  0.7679E-01
  -7.004  0.1405E+00  0.7819E-01
  -6.994  0.1419E+00  0.7961E-01
  -6.984  0.1434E+00  0.8105E-01
  -6.974  0.1448E+00  0.8250E-01
  -6.964  0.1463E+00  0.8396E-01
  -6.954  0.1477E+00  0.8544E-01
  -6.944  0.1492E+00  0.8693E-01
  -6.934  0.1506E+00  0.8843E-01
  -6.924  0.1520E+00  0.8995E-01
  -6.914  0.1535E+00  0.9149E-01
  -6.904  0.1549E+00  0.9304E-01
  -6.894  0.1564E+00  0.9460E-01
  -6.884  0.1578E+00  0.9618E-01
  -6.874  0.1592E+00  0.9777E-01
  -6.864  0.1606E+00  0.9938E-01
  -6.854  0.1621E+00  0.1010E+00
  -6.844  0.1635E+00  0.1026E+00
  -6.834  0.1649E+00  0.1043E+00
  -6.824  0.1663E+00  0.1059E+00
  -6.814  0.1677E+00  0.1076E+00
  -6.804  0.1691E+00  0.1093E+00
  -6.794  0.1705E+00  0.1110E+00
  -6.784  0.1719E+00  0.1127E+00
  -6.774  0.1733E+00  0.1145E+00
  -6.764  0.1746E+00  0.1162E+00
  -6.754  0.1760E+00  0.1180E+00
  -6.744  0.1774E+00  0.1198E+00
  -6.734  0.1787E+00  0.1215E+00
  -6.724  0.1801E+00  0.1233E+00
  -6.714  0.1814E+00  0.1252E+00
  -6.704  0.1827E+00  0.1270E+00
  -6.694  0.1840E+00  0.1288E+00
  -6.684  0.1853E+00  0.1307E+00
  -6.674  0.1866E+00  0.1325E+00
  -6.664  0.1879E+00  0.1344E+00
  -6.654  0.1892E+00  0.1363E+00
  -6.644  0.1905E+00  0.1382E+00
  -6.634  0.1917E+00  0.1401E+00
  -6.624  0.1930E+00  0.1421E+00
  -6.614  0.1942E+00  0.1440E+00
  -6.604  0.1954E+00  0.1460E+00
  -6.594  0.1966E+00  0.1479E+00
  -6.584  0.1978E+00  0.1499E+00
  -6.574  0.1990E+00  0.1519E+00
  -6.564  0.2001E+00  0.1539E+00
  -6.554  0.2013E+00  0.1559E+00
  -6.544  0.2024E+00  0.1579E+00
  -6.534  0.2035E+00  0.1600E+00
  -6.524  0.2046E+00  0.1620E+00
  -6.514  0.2057E+00  0.1641E+00
  -6.504  0.2067E+00  0.1661E+00
  -6.494  0.2078E+00  0.1682E+00
  -6.484  0.2088E+00  0.1703E+00
  -6.474  0.2098E+00  0.1724E+00
  -6.464  0.2108E+00  0.1745E+00
  -6.454  0.2118E+00  0.1766E+00
  -6.444  0.2128E+00  0.1788E+00
  -6.434  0.2137E+00  0.1809E+00
  -6.424  0.2147E+00  0.1830E+00
  -6.414  0.2156E+00  0.1852E+00
  -6.404  0.2165E+00  0.1874E+00
  -6.394  0.2174E+00  0.1895E+00
  -6.384  0.2182E+00  0.1917E+00
  -6.374  0.2191E+00  0.1939E+00
  -6.364  0.2199E+00  0.1961E+00
  -6.354  0.2207E+00  0.1983E+00
  -6.344  0.2215E+00  0.2005E+00
  -6.334  0.2223E+00  0.2028E+00
  -6.324  0.2231E+00  0.2050E+00
  -6.314  0.2238E+00  0.2072E+00
  -6.304  0.2246E+00  0.2095E+00
  -6.294  0.2253E+00  0.2117E+00
  -6.284  0.2260E+00  0.2140E+00
  -6.274  0.2267E+00  0.2162E+00
  -6.264  0.2274E+00  0.2185E+00
  -6.254  0.2281E+00  0.2208E+00
  -6.244  0.2287E+00  0.2231E+00
  -6.234  0.2294E+00  0.2254E+00
  -6.224  0.2300E+00  0.2277E+00
  -6.214  0.2306E+00  0.2300E+00
  -6.204  0.2313E+00  0.2323E+00
  -6.194  0.2319E+00  0.2346E+00
  -6.184  0.2325E+00  0.2369E+00
  -6.174  0.2331E+00  0.2393E+00
  -6.164  0.2337E+00  0.2416E+00
  -6.154  0.2342E+00  0.2440E+00
  -6.144  0.2348E+00  0.2463E+00
  -6.134  0.2354E+00  0.2487E+00
  -6.124  0.2360E+00  0.2510E+00
  -6.114  0.2365E+00  0.2534E+00
  -6.104  0.2371E+00  0.2558E+00
  -6.094  0.2377E+00  0.2581E+00
  -6.084  0.2382E+00  0.2605E+00
  -6.074  0.2388E+00  0.2629E+00
  -6.064  0.2394E+00  0.2653E+00
  -6.054  0.2399E+00  0.2677E+00
  -6.044  0.2405E+00  0.2701E+00
  -6.034  0.2411E+00  0.2725E+00
  -6.024  0.2417E+00  0.2749E+00
  -6.014  0.2423E+00  0.2773E+00
  -6.004  0.2429E+00  0.2798E+00
  -5.994  0.2435E+00  0.2822E+00
  -5.984  0.2441E+00  0.2847E+00
  -5.974  0.2447E+00  0.2871E+00
  -5.964  0.2453E+00  0.2896E+00
  -5.954  0.2460E+00  0.2920E+00
  -5.944  0.2466E+00  0.2945E+00
  -5.934  0.2473E+00  0.2970E+00
  -5.924  0.2480E+00  0.2994E+00
  -5.914  0.2487E+00  0.3019E+00
  -5.904  0.2494E+00  0.3044E+00
  -5.894  0.2501E+00  0.3069E+00
  -5.884  0.2508E+00  0.3094E+00
  -5.874  0.2516E+00  0.3119E+00
  -5.864  0.2523E+00  0.3145E+00
  -5.854  0.2531E+00  0.3170E+00
  -5.844  0.2539E+00  0.3195E+00
  -5.834  0.2547E+00  0.3221E+00
  -5.824  0.2555E+00  0.3246E+00
  -5.814  0.2564E+00  0.3272E+00
  -5.804  0.2572E+00  0.3298E+00
  -5.794  0.2581E+00  0.3324E+00
  -5.784  0.2590E+00  0.3349E+00
  -5.774  0.2599E+00  0.3375E+00
  -5.764  0.2608E+00  0.3401E+00
  -5.754  0.2618E+00  0.3428E+00
  -5.744  0.2627E+00  0.3454E+00
  -5.734  0.2637E+00  0.3480E+00
  -5.724  0.2647E+00  0.3507E+00
  -5.714  0.2657E+00  0.3533E+00
  -5.704  0.2667E+00  0.3560E+00
  -5.694  0.2677E+00  0.3587E+00
  -5.684  0.2688E+00  0.3614E+00
  -5.674  0.2698E+00  0.3641E+00
  -5.664  0.2709E+00  0.3668E+00
  -5.654  0.2720E+00  0.3695E+00
  -5.644  0.2731E+00  0.3722E+00
  -5.634  0.2742E+00  0.3750E+00
  -5.624  0.2753E+00  0.3777E+00
  -5.614  0.2764E+00  0.3805E+00
  -5.604  0.2776E+00  0.3833E+00
  -5.594  0.2787E+00  0.3860E+00
  -5.584  0.2799E+00  0.3888E+00
  -5.574  0.2810E+00  0.3917E+00
  -5.564  0.2822E+00  0.3945E+00
  -5.554  0.2834E+00  0.3973E+00
  -5.544  0.2845E+00  0.4002E+00
  -5.534  0.2857E+00  0.4030E+00
  -5.524  0.2869E+00  0.4059E+00
  -5.514  0.2881E+00  0.4088E+00
  -5.504  0.2892E+00  0.4117E+00
  -5.494  0.2904E+00  0.4146E+00
  -5.484  0.2916E+00  0.4175E+00
  -5.474  0.2928E+00  0.4204E+00
  -5.464  0.2940E+00  0.4233E+00
  -5.454  0.2951E+00  0.4263E+00
  -5.444  0.2963E+00  0.4293E+00
  -5.434  0.2974E+00  0.4322E+00
  -5.424  0.2986E+00  0.4352E+00
  -5.414  0.2997E+00  0.4382E+00
  -5.404  0.3009E+00  0.4412E+00
  -5.394  0.3020E+00  0.4442E+00
  -5.384  0.3031E+00  0.4473E+00
  -5.374  0.3042E+00  0.4503E+00
  -5.364  0.3053E+00  0.4534E+00
  -5.354  0.3064E+00  0.4564E+00
  -5.344  0.3075E+00  0.4595E+00
  -5.334  0.3085E+00  0.4626E+00
  -5.324  0.3096E+00  0.4657E+00
  -5.314  0.3106E+00  0.4688E+00
  -5.304  0.3116E+00  0.4719E+00
  -5.294  0.3126E+00  0.4750E+00
  -5.284  0.3136E+00  0.4782E+00
  -5.274  0.3146E+00  0.4813E+00
  -5.264  0.3155E+00  0.4845E+00
  -5.254  0.3165E+00  0.4876E+00
  -5.244  0.3174E+00  0.4908E+00
  -5.234  0.3183E+00  0.4940E+00
  -5.224  0.3192E+00  0.4972E+00
  -5.214  0.3200E+00  0.5004E+00
  -5.204  0.3209E+00  0.5036E+00
  -5.194  0.3217E+00  0.5068E+00
  -5.184  0.3225E+00  0.5100E+00
  -5.174  0.3233E+00  0.5133E+00
  -5.164  0.3240E+00  0.5165E+00
  -5.154  0.3248E+00  0.5198E+00
  -5.144  0.3255E+00  0.5230E+00
  -5.134  0.3262E+00  0.5263E+00
  -5.124  0.3269E+00  0.5295E+00
  -5.114  0.3276E+00  0.5328E+00
  -5.104  0.3283E+00  0.5361E+00
  -5.094  0.3289E+00  0.5394E+00
  -5.084  0.3295E+00  0.5427E+00
  -5.074  0.3302E+00  0.5460E+00
  -5.064  0.3307E+00  0.5493E+00
  -5.054  0.3313E+00  0.5526E+00
  -5.044  0.3319E+00  0.5559E+00
  -5.034  0.3324E+00  0.5593E+00
  -5.024  0.3330E+00  0.5626E+00
  -5.014  0.3335E+00  0.5659E+00
  -5.004  0.3340E+00  0.5693E+00
  -4.994  0.3345E+00  0.5726E+00
  -4.984  0.3349E+00  0.5760E+00
  -4.974  0.3354E+00  0.5793E+00
  -4.964  0.3359E+00  0.5827E+00
  -4.954  0.3363E+00  0.5860E+00
  -4.944  0.3367E+00  0.5894E+00
  -4.934  0.3371E+00  0.5928E+00
  -4.924  0.3376E+00  0.5961E+00
  -4.914  0.3380E+00  0.5995E+00
  -4.904  0.3383E+00  0.6029E+00
  -4.894  0.3387E+00  0.6063E+00
  -4.884  0.3391E+00  0.6097E+00
  -4.874  0.3395E+00  0.6131E+00
  -4.864  0.3398E+00  0.6165E+00
  -4.854  0.3402E+00  0.6199E+00
  -4.844  0.3405E+00  0.6233E+00
  -4.834  0.3409E+00  0.6267E+00
  -4.824  0.3412E+00  0.6301E+00
  -4.814  0.3415E+00  0.6335E+00
  -4.804  0.3419E+00  0.6369E+00
  -4.794  0.3422E+00  0.6404E+00
  -4.784  0.3425E+00  0.6438E+00
  -4.774  0.3428E+00  0.6472E+00
  -4.764  0.3431E+00  0.6506E+00
  -4.754  0.3434E+00  0.6541E+00
  -4.744  0.3437E+00  0.6575E+00
  -4.734  0.3440E+00  0.6610E+00
  -4.724  0.3443E+00  0.6644E+00
  -4.714  0.3446E+00  0.6678E+00
  -4.704  0.3449E+00  0.6713E+00
  -4.694  0.3452E+00  0.6747E+00
  -4.684  0.3455E+00  0.6782E+00
  -4.674  0.3458E+00  0.6817E+00
  -4.664  0.3461E+00  0.6851E+00
  -4.654  0.3464E+00  0.6886E+00
  -4.644  0.3466E+00  0.6921E+00
  -4.634  0.3469E+00  0.6955E+00
  -4.624  0.3472E+00  0.6990E+00
  -4.614  0.3475E+00  0.7025E+00
  -4.604  0.3477E+00  0.7059E+00
  -4.594  0.3480E+00  0.7094E+00
  -4.584  0.3483E+00  0.7129E+00
  -4.574  0.3485E+00  0.7164E+00
  -4.564  0.3488E+00  0.7199E+00
  -4.554  0.3491E+00  0.7234E+00
  -4.544  0.3493E+00  0.7269E+00
  -4.534  0.3496E+00  0.7304E+00
  -4.524  0.3498E+00  0.7339E+00
  -4.514  0.3501E+00  0.7374E+00
  -4.504  0.3503E+00  0.7409E+00
  -4.494  0.3505E+00  0.7444E+00
  -4.484  0.3508E+00  0.7479E+00
  -4.474  0.3510E+00  0.7514E+00
  -4.464  0.3512E+00  0.7549E+00
  -4.454  0.3514E+00  0.7584E+00
  -4.444  0.3517E+00  0.7619E+00
  -4.434  0.3519E+00  0.7654E+00
  -4.424  0.3521E+00  0.7690E+00
  -4.414  0.3523E+00  0.7725E+00
  -4.404  0.3525E+00  0.7760E+00
  -4.394  0.3527E+00  0.7795E+00
  -4.384  0.3529E+00  0.7831E+00
  -4.374  0.3531E+00  0.7866E+00
  -4.364  0.3533E+00  0.7901E+00
  -4.354  0.3534E+00  0.7937E+00
  -4.344  0.3536E+00  0.7972E+00
  -4.334  0.3538E+00  0.8007E+00
  -4.324  0.3540E+00  0.8043E+00
  -4.314  0.3541E+00  0.8078E+00
  -4.304  0.3543E+00  0.8114E+00
  -4.294  0.3545E+00  0.8149E+00
  -4.284  0.3546E+00  0.8185E+00
  -4.274  0.3548E+00  0.8220E+00
  -4.264  0.3550E+00  0.8256E+00
  -4.254  0.3551E+00  0.8291E+00
  -4.244  0.3553E+00  0.8327E+00
  -4.234  0.3555E+00  0.8362E+00
  -4.224  0.3556E+00  0.8398E+00
  -4.214  0.3558E+00  0.8433E+00
  -4.204  0.3560E+00  0.8469E+00
  -4.194  0.3562E+00  0.8505E+00
  -4.184  0.3564E+00  0.8540E+00
  -4.174  0.3565E+00  0.8576E+00
  -4.164  0.3567E+00  0.8612E+00
  -4.154  0.3569E+00  0.8647E+00
  -4.144  0.3572E+00  0.8683E+00
  -4.134  0.3574E+00  0.8719E+00
  -4.124  0.3576E+00  0.8754E+00
  -4.114  0.3578E+00  0.8790E+00
  -4.104  0.3581E+00  0.8826E+00
  -4.094  0.3584E+00  0.8862E+00
  -4.084  0.3587E+00  0.8898E+00
  -4.074  0.3589E+00  0.8934E+00
  -4.064  0.3593E+00  0.8970E+00
  -4.054  0.3596E+00  0.9005E+00
  -4.044  0.3599E+00  0.9041E+00
  -4.034  0.3603E+00  0.9078E+00
  -4.024  0.3607E+00  0.9114E+00
  -4.014  0.3611E+00  0.9150E+00
  -4.004  0.3615E+00  0.9186E+00
  -3.994  0.3620E+00  0.9222E+00
  -3.984  0.3624E+00  0.9258E+00
  -3.974  0.3629E+00  0.9295E+00
  -3.964  0.3634E+00  0.9331E+00
  -3.954  0.3640E+00  0.9367E+00
  -3.944  0.3645E+00  0.9404E+00
  -3.934  0.3651E+00  0.9440E+00
  -3.924  0.3658E+00  0.9477E+00
  -3.914  0.3664E+00  0.9514E+00
  -3.904  0.3671E+00  0.9550E+00
  -3.894  0.3678E+00  0.9587E+00
  -3.884  0.3685E+00  0.9624E+00
  -3.874  0.3693E+00  0.9661E+00
  -3.864  0.3701E+00  0.9698E+00
  -3.854  0.3709E+00  0.9735E+00
  -3.844  0.3718E+00  0.9772E+00
  -3.834  0.3727E+00  0.9809E+00
  -3.824  0.3736E+00  0.9847E+00
  -3.814  0.3746E+00  0.9884E+00
  -3.804  0.3756E+00  0.9922E+00
  -3.794  0.3766E+00  0.9959E+00
  -3.784  0.3776E+00  0.9997E+00
  -3.774  0.3787E+00  0.1004E+01
  -3.764  0.3798E+00  0.1007E+01
  -3.754  0.3810E+00  0.1011E+01
  -3.744  0.3821E+00  0.1015E+01
  -3.734  0.3833E+00  0.1019E+01
  -3.724  0.3846E+00  0.1023E+01
  -3.714  0.3858E+00  0.1026E+01
  -3.704  0.3871E+00  0.1030E+01
  -3.694  0.3884E+00  0.1034E+01
  -3.684  0.3898E+00  0.1038E+01
  -3.674  0.3911E+00  0.1042E+01
  -3.664  0.3925E+00  0.1046E+01
  -3.654  0.3940E+00  0.1050E+01
  -3.644  0.3954E+00  0.1054E+01
  -3.634  0.3969E+00  0.1058E+01
  -3.624  0.3983E+00  0.1062E+01
  -3.614  0.3998E+00  0.1066E+01
