#  E (eV)   dos(E)     Int dos(E) EFermi =  10.815 eV
 -11.617  0.2090E-03  0.2090E-05
 -11.607  0.2655E-03  0.4745E-05
 -11.597  0.3363E-03  0.8108E-05
 -11.587  0.4249E-03  0.1236E-04
 -11.577  0.5355E-03  0.1771E-04
 -11.567  0.6732E-03  0.2444E-04
 -11.557  0.8440E-03  0.3288E-04
 -11.547  0.1056E-02  0.4344E-04
 -11.537  0.1317E-02  0.5661E-04
 -11.527  0.1639E-02  0.7300E-04
 -11.517  0.2034E-02  0.9333E-04
 -11.507  0.2518E-02  0.1185E-03
 -11.497  0.3109E-02  0.1496E-03
 -11.487  0.3830E-02  0.1879E-03
 -11.477  0.4706E-02  0.2350E-03
 -11.467  0.5768E-02  0.2926E-03
 -11.457  0.7051E-02  0.3632E-03
 -11.447  0.8598E-02  0.4491E-03
 -11.437  0.1046E-01  0.5537E-03
 -11.427  0.1269E-01  0.6806E-03
 -11.417  0.1536E-01  0.8342E-03
 -11.407  0.1854E-01  0.1020E-02
 -11.397  0.2233E-01  0.1243E-02
 -11.387  0.2682E-01  0.1511E-02
 -11.377  0.3214E-01  0.1833E-02
 -11.367  0.3842E-01  0.2217E-02
 -11.357  0.4581E-01  0.2675E-02
 -11.347  0.5449E-01  0.3220E-02
 -11.337  0.6465E-01  0.3866E-02
 -11.327  0.7652E-01  0.4632E-02
 -11.317  0.9035E-01  0.5535E-02
 -11.307  0.1064E+00  0.6599E-02
 -11.297  0.1250E+00  0.7850E-02
 -11.287  0.1465E+00  0.9315E-02
 -11.277  0.1713E+00  0.1103E-01
 -11.267  0.1999E+00  0.1303E-01
 -11.257  0.2326E+00  0.1535E-01
 -11.247  0.2699E+00  0.1805E-01
 -11.237  0.3126E+00  0.2118E-01
 -11.227  0.3611E+00  0.2479E-01
 -11.217  0.4161E+00  0.2895E-01
 -11.207  0.4784E+00  0.3373E-01
 -11.197  0.5488E+00  0.3922E-01
 -11.187  0.6279E+00  0.4550E-01
 -11.177  0.7168E+00  0.5267E-01
 -11.167  0.8163E+00  0.6083E-01
 -11.157  0.9275E+00  0.7011E-01
 -11.147  0.1051E+01  0.8062E-01
 -11.137  0.1189E+01  0.9251E-01
 -11.127  0.1341E+01  0.1059E+00
 -11.117  0.1510E+01  0.1210E+00
 -11.107  0.1696E+01  0.1380E+00
 -11.097  0.1900E+01  0.1570E+00
 -11.087  0.2124E+01  0.1782E+00
 -11.077  0.2369E+01  0.2019E+00
 -11.067  0.2636E+01  0.2283E+00
 -11.057  0.2927E+01  0.2575E+00
 -11.047  0.3242E+01  0.2900E+00
 -11.037  0.3584E+01  0.3258E+00
 -11.027  0.3952E+01  0.3653E+00
 -11.017  0.4348E+01  0.4088E+00
 -11.007  0.4774E+01  0.4565E+00
 -10.997  0.5230E+01  0.5088E+00
 -10.987  0.5716E+01  0.5660E+00
 -10.977  0.6234E+01  0.6283E+00
 -10.967  0.6784E+01  0.6962E+00
 -10.957  0.7367E+01  0.7699E+00
 -10.947  0.7982E+01  0.8497E+00
 -10.937  0.8630E+01  0.9360E+00
 -10.927  0.9311E+01  0.1029E+01
 -10.917  0.1002E+02  0.1129E+01
 -10.907  0.1077E+02  0.1237E+01
 -10.897  0.1154E+02  0.1352E+01
 -10.887  0.1235E+02  0.1476E+01
 -10.877  0.1318E+02  0.1608E+01
 -10.867  0.1404E+02  0.1748E+01
 -10.857  0.1492E+02  0.1897E+01
 -10.847  0.1582E+02  0.2055E+01
 -10.837  0.1675E+02  0.2223E+01
 -10.827  0.1769E+02  0.2400E+01
 -10.817  0.1865E+02  0.2586E+01
 -10.807  0.1962E+02  0.2783E+01
 -10.797  0.2060E+02  0.2989E+01
 -10.787  0.2158E+02  0.3204E+01
 -10.777  0.2256E+02  0.3430E+01
 -10.767  0.2353E+02  0.3665E+01
 -10.757  0.2450E+02  0.3910E+01
 -10.747  0.2546E+02  0.4165E+01
 -10.737  0.2640E+02  0.4429E+01
 -10.727  0.2733E+02  0.4702E+01
 -10.717  0.2822E+02  0.4984E+01
 -10.707  0.2909E+02  0.5275E+01
 -10.697  0.2992E+02  0.5575E+01
 -10.687  0.3072E+02  0.5882E+01
 -10.677  0.3147E+02  0.6196E+01
 -10.667  0.3218E+02  0.6518E+01
 -10.657  0.3284E+02  0.6847E+01
 -10.647  0.3344E+02  0.7181E+01
 -10.637  0.3399E+02  0.7521E+01
 -10.627  0.3448E+02  0.7866E+01
 -10.617  0.3490E+02  0.8215E+01
 -10.607  0.3526E+02  0.8567E+01
 -10.597  0.3555E+02  0.8923E+01
 -10.587  0.3577E+02  0.9281E+01
 -10.577  0.3592E+02  0.9640E+01
 -10.567  0.3600E+02  0.1000E+02
 -10.557  0.3601E+02  0.1036E+02
 -10.547  0.3595E+02  0.1072E+02
 -10.537  0.3581E+02  0.1108E+02
 -10.527  0.3560E+02  0.1143E+02
 -10.517  0.3532E+02  0.1179E+02
 -10.507  0.3498E+02  0.1214E+02
 -10.497  0.3456E+02  0.1248E+02
 -10.487  0.3409E+02  0.1282E+02
 -10.477  0.3355E+02  0.1316E+02
 -10.467  0.3295E+02  0.1349E+02
 -10.457  0.3230E+02  0.1381E+02
 -10.447  0.3159E+02  0.1413E+02
 -10.437  0.3084E+02  0.1444E+02
 -10.427  0.3004E+02  0.1474E+02
 -10.417  0.2921E+02  0.1503E+02
 -10.407  0.2834E+02  0.1531E+02
 -10.397  0.2744E+02  0.1559E+02
 -10.387  0.2651E+02  0.1585E+02
 -10.377  0.2556E+02  0.1611E+02
 -10.367  0.2459E+02  0.1635E+02
 -10.357  0.2361E+02  0.1659E+02
 -10.347  0.2262E+02  0.1681E+02
 -10.337  0.2163E+02  0.1703E+02
 -10.327  0.2064E+02  0.1724E+02
 -10.317  0.1965E+02  0.1743E+02
 -10.307  0.1867E+02  0.1762E+02
 -10.297  0.1770E+02  0.1780E+02
 -10.287  0.1675E+02  0.1796E+02
 -10.277  0.1581E+02  0.1812E+02
 -10.267  0.1490E+02  0.1827E+02
 -10.257  0.1401E+02  0.1841E+02
 -10.247  0.1314E+02  0.1854E+02
 -10.237  0.1230E+02  0.1867E+02
 -10.227  0.1149E+02  0.1878E+02
 -10.217  0.1071E+02  0.1889E+02
 -10.207  0.9956E+01  0.1899E+02
 -10.197  0.9239E+01  0.1908E+02
 -10.187  0.8555E+01  0.1917E+02
 -10.177  0.7904E+01  0.1924E+02
 -10.167  0.7287E+01  0.1932E+02
 -10.157  0.6704E+01  0.1938E+02
 -10.147  0.6153E+01  0.1945E+02
 -10.137  0.5635E+01  0.1950E+02
 -10.127  0.5150E+01  0.1955E+02
 -10.117  0.4696E+01  0.1960E+02
 -10.107  0.4272E+01  0.1964E+02
 -10.097  0.3878E+01  0.1968E+02
 -10.087  0.3513E+01  0.1972E+02
 -10.077  0.3175E+01  0.1975E+02
 -10.067  0.2863E+01  0.1978E+02
 -10.057  0.2575E+01  0.1980E+02
 -10.047  0.2312E+01  0.1983E+02
 -10.037  0.2071E+01  0.1985E+02
 -10.027  0.1851E+01  0.1987E+02
 -10.017  0.1650E+01  0.1988E+02
 -10.007  0.1468E+01  0.1990E+02
  -9.997  0.1303E+01  0.1991E+02
  -9.987  0.1154E+01  0.1992E+02
  -9.977  0.1019E+01  0.1993E+02
  -9.967  0.8987E+00  0.1994E+02
  -9.957  0.7904E+00  0.1995E+02
  -9.947  0.6936E+00  0.1996E+02
  -9.937  0.6073E+00  0.1996E+02
  -9.927  0.5304E+00  0.1997E+02
  -9.917  0.4623E+00  0.1997E+02
  -9.907  0.4019E+00  0.1998E+02
  -9.897  0.3487E+00  0.1998E+02
  -9.887  0.3018E+00  0.1998E+02
  -9.877  0.2606E+00  0.1999E+02
  -9.867  0.2245E+00  0.1999E+02
  -9.857  0.1929E+00  0.1999E+02
  -9.847  0.1654E+00  0.1999E+02
  -9.837  0.1415E+00  0.1999E+02
  -9.827  0.1208E+00  0.1999E+02
  -9.817  0.1028E+00  0.1999E+02
  -9.807  0.8734E-01  0.2000E+02
  -9.797  0.7402E-01  0.2000E+02
  -9.787  0.6258E-01  0.2000E+02
  -9.777  0.5278E-01  0.2000E+02
  -9.767  0.4441E-01  0.2000E+02
  -9.757  0.3728E-01  0.2000E+02
  -9.747  0.3122E-01  0.2000E+02
  -9.737  0.2609E-01  0.2000E+02
  -9.727  0.2174E-01  0.2000E+02
  -9.717  0.1808E-01  0.2000E+02
  -9.707  0.1500E-01  0.2000E+02
  -9.697  0.1241E-01  0.2000E+02
  -9.687  0.1025E-01  0.2000E+02
  -9.677  0.8439E-02  0.2000E+02
  -9.667  0.6934E-02  0.2000E+02
  -9.657  0.5683E-02  0.2000E+02
  -9.647  0.4647E-02  0.2000E+02
  -9.637  0.3790E-02  0.2000E+02
  -9.627  0.3084E-02  0.2000E+02
  -9.617  0.2504E-02  0.2000E+02
  -9.607  0.2027E-02  0.2000E+02
  -9.597  0.1638E-02  0.2000E+02
  -9.587  0.1320E-02  0.2000E+02
  -9.577  0.1061E-02  0.2000E+02
  -9.567  0.8508E-03  0.2000E+02
  -9.557  0.6807E-03  0.2000E+02
  -9.547  0.5432E-03  0.2000E+02
  -9.537  0.4324E-03  0.2000E+02
  -9.527  0.3434E-03  0.2000E+02
  -9.517  0.2720E-03  0.2000E+02
  -9.507  0.2149E-03  0.2000E+02
  -9.497  0.1694E-03  0.2000E+02
  -9.487  0.1332E-03  0.2000E+02
  -9.477  0.1045E-03  0.2000E+02
  -9.467  0.8177E-04  0.2000E+02
  -9.457  0.6382E-04  0.2000E+02
  -9.447  0.4969E-04  0.2000E+02
  -9.437  0.3859E-04  0.2000E+02
  -9.427  0.2990E-04  0.2000E+02
  -9.417  0.2311E-04  0.2000E+02
  -9.407  0.1781E-04  0.2000E+02
  -9.397  0.1370E-04  0.2000E+02
  -9.387  0.1051E-04  0.2000E+02
  -9.377  0.8038E-05  0.2000E+02
  -9.367  0.6135E-05  0.2000E+02
  -9.357  0.4670E-05  0.2000E+02
  -9.347  0.3547E-05  0.2000E+02
  -9.337  0.2686E-05  0.2000E+02
  -9.327  0.2030E-05  0.2000E+02
  -9.317  0.1530E-05  0.2000E+02
  -9.307  0.1150E-05  0.2000E+02
  -9.297  0.8625E-06  0.2000E+02
  -9.287  0.6451E-06  0.2000E+02
  -9.277  0.4813E-06  0.2000E+02
  -9.267  0.3582E-06  0.2000E+02
  -9.257  0.2659E-06  0.2000E+02
  -9.247  0.1969E-06  0.2000E+02
  -9.237  0.1454E-06  0.2000E+02
  -9.227  0.1071E-06  0.2000E+02
  -9.217  0.7873E-07  0.2000E+02
  -9.207  0.5771E-07  0.2000E+02
  -9.197  0.4219E-07  0.2000E+02
  -9.187  0.3077E-07  0.2000E+02
  -9.177  0.2238E-07  0.2000E+02
  -9.167  0.1624E-07  0.2000E+02
  -9.157  0.1175E-07  0.2000E+02
  -9.147  0.8482E-08  0.2000E+02
  -9.137  0.6107E-08  0.2000E+02
  -9.127  0.4386E-08  0.2000E+02
  -9.117  0.3142E-08  0.2000E+02
  -9.107  0.2245E-08  0.2000E+02
  -9.097  0.1600E-08  0.2000E+02
  -9.087  0.1137E-08  0.2000E+02
  -9.077  0.8061E-09  0.2000E+02
  -9.067  0.5701E-09  0.2000E+02
  -9.057  0.4021E-09  0.2000E+02
  -9.047  0.2829E-09  0.2000E+02
  -9.037  0.1985E-09  0.2000E+02
  -9.027  0.1389E-09  0.2000E+02
  -9.017  0.9699E-10  0.2000E+02
  -9.007  0.6754E-10  0.2000E+02
  -8.997  0.4691E-10  0.2000E+02
  -8.987  0.3249E-10  0.2000E+02
  -8.977  0.2245E-10  0.2000E+02
  -8.967  0.1547E-10  0.2000E+02
  -8.957  0.1063E-10  0.2000E+02
  -8.947  0.7290E-11  0.2000E+02
  -8.937  0.4985E-11  0.2000E+02
  -8.927  0.3400E-11  0.2000E+02
  -8.917  0.2313E-11  0.2000E+02
  -8.907  0.1569E-11  0.2000E+02
  -8.897  0.1062E-11  0.2000E+02
  -8.887  0.7168E-12  0.2000E+02
  -8.877  0.4826E-12  0.2000E+02
  -8.867  0.3240E-12  0.2000E+02
  -8.857  0.2170E-12  0.2000E+02
  -8.847  0.1450E-12  0.2000E+02
  -8.837  0.9658E-13  0.2000E+02
  -8.827  0.6418E-13  0.2000E+02
  -8.817  0.4253E-13  0.2000E+02
  -8.807  0.2812E-13  0.2000E+02
  -8.797  0.1854E-13  0.2000E+02
  -8.787  0.1219E-13  0.2000E+02
  -8.777  0.7996E-14  0.2000E+02
  -8.767  0.5230E-14  0.2000E+02
  -8.757  0.3413E-14  0.2000E+02
  -8.747  0.2221E-14  0.2000E+02
  -8.737  0.1441E-14  0.2000E+02
  -8.727  0.9331E-15  0.2000E+02
  -8.717  0.6025E-15  0.2000E+02
  -8.707  0.3880E-15  0.2000E+02
  -8.697  0.2492E-15  0.2000E+02
  -8.687  0.1596E-15  0.2000E+02
  -8.677  0.1020E-15  0.2000E+02
  -8.667  0.6499E-16  0.2000E+02
  -8.657  0.4131E-16  0.2000E+02
  -8.647  0.2618E-16  0.2000E+02
  -8.637  0.1655E-16  0.2000E+02
  -8.627  0.1044E-16  0.2000E+02
  -8.617  0.6565E-17  0.2000E+02
  -8.607  0.4118E-17  0.2000E+02
  -8.597  0.2576E-17  0.2000E+02
  -8.587  0.1608E-17  0.2000E+02
  -8.577  0.1001E-17  0.2000E+02
  -8.567  0.6210E-18  0.2000E+02
  -8.557  0.3844E-18  0.2000E+02
  -8.547  0.2374E-18  0.2000E+02
  -8.537  0.1462E-18  0.2000E+02
  -8.527  0.8978E-19  0.2000E+02
  -8.517  0.5500E-19  0.2000E+02
  -8.507  0.3360E-19  0.2000E+02
  -8.497  0.2047E-19  0.2000E+02
  -8.487  0.1244E-19  0.2000E+02
  -8.477  0.7542E-20  0.2000E+02
  -8.467  0.4560E-20  0.2000E+02
  -8.457  0.2749E-20  0.2000E+02
  -8.447  0.1653E-20  0.2000E+02
  -8.437  0.9915E-21  0.2000E+02
  -8.427  0.5931E-21  0.2000E+02
  -8.417  0.3539E-21  0.2000E+02
  -8.407  0.2106E-21  0.2000E+02
  -8.397  0.1250E-21  0.2000E+02
  -8.387  0.7396E-22  0.2000E+02
  -8.377  0.4366E-22  0.2000E+02
  -8.367  0.2570E-22  0.2000E+02
  -8.357  0.1509E-22  0.2000E+02
  -8.347  0.8840E-23  0.2000E+02
  -8.337  0.5163E-23  0.2000E+02
  -8.327  0.3008E-23  0.2000E+02
  -8.317  0.1748E-23  0.2000E+02
  -8.307  0.1013E-23  0.2000E+02
  -8.297  0.5853E-24  0.2000E+02
  -8.287  0.3374E-24  0.2000E+02
  -8.277  0.1939E-24  0.2000E+02
  -8.267  0.1112E-24  0.2000E+02
  -8.257  0.6359E-25  0.2000E+02
  -8.247  0.3627E-25  0.2000E+02
  -8.237  0.2063E-25  0.2000E+02
  -8.227  0.1170E-25  0.2000E+02
  -8.217  0.6622E-26  0.2000E+02
  -8.207  0.3737E-26  0.2000E+02
  -8.197  0.2103E-26  0.2000E+02
  -8.187  0.1180E-26  0.2000E+02
  -8.177  0.6608E-27  0.2000E+02
  -8.167  0.3690E-27  0.2000E+02
  -8.157  0.2055E-27  0.2000E+02
  -8.147  0.1141E-27  0.2000E+02
  -8.137  0.6321E-28  0.2000E+02
  -8.127  0.3492E-28  0.2000E+02
  -8.117  0.1924E-28  0.2000E+02
  -8.107  0.1057E-28  0.2000E+02
  -8.097  0.5794E-29  0.2000E+02
  -8.087  0.3167E-29  0.2000E+02
  -8.077  0.1726E-29  0.2000E+02
  -8.067  0.9385E-30  0.2000E+02
  -8.057  0.5089E-30  0.2000E+02
  -8.047  0.2752E-30  0.2000E+02
  -8.037  0.1484E-30  0.2000E+02
  -8.027  0.7985E-31  0.2000E+02
  -8.017  0.4284E-31  0.2000E+02
  -8.007  0.2292E-31  0.2000E+02
  -7.997  0.1223E-31  0.2000E+02
  -7.987  0.6511E-32  0.2000E+02
  -7.977  0.3456E-32  0.2000E+02
  -7.967  0.1830E-32  0.2000E+02
  -7.957  0.9660E-33  0.2000E+02
  -7.947  0.5087E-33  0.2000E+02
  -7.937  0.2671E-33  0.2000E+02
  -7.927  0.1399E-33  0.2000E+02
  -7.917  0.7310E-34  0.2000E+02
  -7.907  0.3808E-34  0.2000E+02
  -7.897  0.1979E-34  0.2000E+02
  -7.887  0.1026E-34  0.2000E+02
  -7.877  0.5300E-35  0.2000E+02
  -7.867  0.2732E-35  0.2000E+02
  -7.857  0.1405E-35  0.2000E+02
  -7.847  0.7202E-36  0.2000E+02
  -7.837  0.3683E-36  0.2000E+02
  -7.827  0.1878E-36  0.2000E+02
  -7.817  0.9553E-37  0.2000E+02
  -7.807  0.4846E-37  0.2000E+02
  -7.797  0.2452E-37  0.2000E+02
  -7.787  0.1237E-37  0.2000E+02
  -7.777  0.6226E-38  0.2000E+02
  -7.767  0.3125E-38  0.2000E+02
  -7.757  0.1564E-38  0.2000E+02
  -7.747  0.7809E-39  0.2000E+02
  -7.737  0.3888E-39  0.2000E+02
  -7.727  0.1931E-39  0.2000E+02
  -7.717  0.9561E-40  0.2000E+02
  -7.707  0.4722E-40  0.2000E+02
  -7.697  0.2326E-40  0.2000E+02
  -7.687  0.1143E-40  0.2000E+02
  -7.677  0.5600E-41  0.2000E+02
  -7.667  0.2736E-41  0.2000E+02
  -7.657  0.1334E-41  0.2000E+02
  -7.647  0.6482E-42  0.2000E+02
  -7.637  0.3142E-42  0.2000E+02
  -7.627  0.1519E-42  0.2000E+02
  -7.617  0.7325E-43  0.2000E+02
  -7.607  0.3523E-43  0.2000E+02
  -7.597  0.1689E-43  0.2000E+02
  -7.587  0.8081E-44  0.2000E+02
  -7.577  0.3855E-44  0.2000E+02
  -7.567  0.1834E-44  0.2000E+02
  -7.557  0.8703E-45  0.2000E+02
  -7.547  0.4119E-45  0.2000E+02
  -7.537  0.1944E-45  0.2000E+02
  -7.527  0.9150E-46  0.2000E+02
  -7.517  0.4296E-46  0.2000E+02
  -7.507  0.2011E-46  0.2000E+02
  -7.497  0.9391E-47  0.2000E+02
  -7.487  0.4373E-47  0.2000E+02
  -7.477  0.2031E-47  0.2000E+02
  -7.467  0.9409E-48  0.2000E+02
  -7.457  0.4347E-48  0.2000E+02
  -7.447  0.2003E-48  0.2000E+02
  -7.437  0.9203E-49  0.2000E+02
  -7.427  0.4218E-49  0.2000E+02
  -7.417  0.1928E-49  0.2000E+02
  -7.407  0.8787E-50  0.2000E+02
  -7.397  0.3995E-50  0.2000E+02
  -7.387  0.1811E-50  0.2000E+02
  -7.377  0.8190E-51  0.2000E+02
  -7.367  0.3693E-51  0.2000E+02
  -7.357  0.1661E-51  0.2000E+02
  -7.347  0.7452E-52  0.2000E+02
  -7.337  0.3334E-52  0.2000E+02
  -7.327  0.1487E-52  0.2000E+02
  -7.317  0.6618E-53  0.2000E+02
  -7.307  0.2937E-53  0.2000E+02
  -7.297  0.1300E-53  0.2000E+02
  -7.287  0.5738E-54  0.2000E+02
  -7.277  0.2526E-54  0.2000E+02
  -7.267  0.1109E-54  0.2000E+02
  -7.257  0.4857E-55  0.2000E+02
  -7.247  0.2121E-55  0.2000E+02
  -7.237  0.9238E-56  0.2000E+02
  -7.227  0.4013E-56  0.2000E+02
  -7.217  0.1738E-56  0.2000E+02
  -7.207  0.7511E-57  0.2000E+02
  -7.197  0.3236E-57  0.2000E+02
  -7.187  0.1391E-57  0.2000E+02
  -7.177  0.5961E-58  0.2000E+02
  -7.167  0.2548E-58  0.2000E+02
  -7.157  0.1086E-58  0.2000E+02
  -7.147  0.4618E-59  0.2000E+02
  -7.137  0.1958E-59  0.2000E+02
  -7.127  0.8281E-60  0.2000E+02
  -7.117  0.3492E-60  0.2000E+02
  -7.107  0.1469E-60  0.2000E+02
  -7.097  0.6162E-61  0.2000E+02
  -7.087  0.2578E-61  0.2000E+02
  -7.077  0.1076E-61  0.2000E+02
  -7.067  0.4476E-62  0.2000E+02
  -7.057  0.1858E-62  0.2000E+02
  -7.047  0.7690E-63  0.2000E+02
  -7.037  0.3174E-63  0.2000E+02
  -7.027  0.1307E-63  0.2000E+02
  -7.017  0.5366E-64  0.2000E+02
  -7.007  0.2197E-64  0.2000E+02
  -6.997  0.8973E-65  0.2000E+02
  -6.987  0.3655E-65  0.2000E+02
  -6.977  0.1485E-65  0.2000E+02
  -6.967  0.6014E-66  0.2000E+02
  -6.957  0.2430E-66  0.2000E+02
  -6.947  0.9792E-67  0.2000E+02
  -6.937  0.3935E-67  0.2000E+02
  -6.927  0.1577E-67  0.2000E+02
  -6.917  0.6304E-68  0.2000E+02
  -6.907  0.2513E-68  0.2000E+02
  -6.897  0.9992E-69  0.2000E+02
  -6.887  0.3962E-69  0.2000E+02
  -6.877  0.1567E-69  0.2000E+02
  -6.867  0.6179E-70  0.2000E+02
  -6.857  0.2430E-70  0.2000E+02
  -6.847  0.9534E-71  0.2000E+02
  -6.837  0.3730E-71  0.2000E+02
  -6.827  0.1455E-71  0.2000E+02
  -6.817  0.5663E-72  0.2000E+02
  -6.807  0.2198E-72  0.2000E+02
  -6.797  0.8506E-73  0.2000E+02
  -6.787  0.3284E-73  0.2000E+02
  -6.777  0.1264E-73  0.2000E+02
  -6.767  0.4853E-74  0.2000E+02
  -6.757  0.1858E-74  0.2000E+02
  -6.747  0.7097E-75  0.2000E+02
  -6.737  0.2703E-75  0.2000E+02
  -6.727  0.1027E-75  0.2000E+02
  -6.717  0.3889E-76  0.2000E+02
  -6.707  0.1469E-76  0.2000E+02
  -6.697  0.5537E-77  0.2000E+02
  -6.687  0.2081E-77  0.2000E+02
  -6.677  0.7797E-78  0.2000E+02
  -6.667  0.2914E-78  0.2000E+02
  -6.657  0.1086E-78  0.2000E+02
  -6.647  0.4039E-79  0.2000E+02
  -6.637  0.1497E-79  0.2000E+02
  -6.627  0.5537E-80  0.2000E+02
  -6.617  0.2042E-80  0.2000E+02
  -6.607  0.7511E-81  0.2000E+02
  -6.597  0.2756E-81  0.2000E+02
  -6.587  0.1009E-81  0.2000E+02
  -6.577  0.3690E-82  0.2000E+02
  -6.567  0.1351E-82  0.2000E+02
  -6.557  0.4988E-83  0.2000E+02
  -6.547  0.1891E-83  0.2000E+02
  -6.537  0.7686E-84  0.2000E+02
  -6.527  0.3633E-84  0.2000E+02
  -6.517  0.2176E-84  0.2000E+02
  -6.507  0.1655E-84  0.2000E+02
  -6.497  0.1471E-84  0.2000E+02
  -6.487  0.1407E-84  0.2000E+02
  -6.477  0.1385E-84  0.2000E+02
  -6.467  0.1379E-84  0.2000E+02
  -6.457  0.1377E-84  0.2000E+02
  -6.447  0.1377E-84  0.2000E+02
  -6.437  0.1377E-84  0.2000E+02
  -6.427  0.1377E-84  0.2000E+02
  -6.417  0.1377E-84  0.2000E+02
  -6.407  0.1377E-84  0.2000E+02
  -6.397  0.1377E-84  0.2000E+02
  -6.387  0.1377E-84  0.2000E+02
  -6.377  0.1377E-84  0.2000E+02
  -6.367  0.1377E-84  0.2000E+02
  -6.357  0.1377E-84  0.2000E+02
  -6.347  0.1377E-84  0.2000E+02
  -6.337  0.1377E-84  0.2000E+02
  -6.327  0.1377E-84  0.2000E+02
  -6.317  0.1377E-84  0.2000E+02
  -6.307  0.1377E-84  0.2000E+02
  -6.297  0.1377E-84  0.2000E+02
  -6.287  0.1377E-84  0.2000E+02
  -6.277  0.1377E-84  0.2000E+02
  -6.267  0.1377E-84  0.2000E+02
  -6.257  0.1377E-84  0.2000E+02
  -6.247  0.1377E-84  0.2000E+02
  -6.237  0.1377E-84  0.2000E+02
  -6.227  0.1377E-84  0.2000E+02
  -6.217  0.1377E-84  0.2000E+02
  -6.207  0.1377E-84  0.2000E+02
  -6.197  0.1377E-84  0.2000E+02
  -6.187  0.1377E-84  0.2000E+02
  -6.177  0.1377E-84  0.2000E+02
  -6.167  0.1377E-84  0.2000E+02
  -6.157  0.1377E-84  0.2000E+02
  -6.147  0.1377E-84  0.2000E+02
  -6.137  0.1377E-84  0.2000E+02
  -6.127  0.1377E-84  0.2000E+02
  -6.117  0.1377E-84  0.2000E+02
  -6.107  0.1377E-84  0.2000E+02
  -6.097  0.1377E-84  0.2000E+02
  -6.087  0.1377E-84  0.2000E+02
  -6.077  0.1377E-84  0.2000E+02
  -6.067  0.1377E-84  0.2000E+02
  -6.057  0.1377E-84  0.2000E+02
  -6.047  0.1377E-84  0.2000E+02
  -6.037  0.1377E-84  0.2000E+02
  -6.027  0.1377E-84  0.2000E+02
  -6.017  0.1377E-84  0.2000E+02
  -6.007  0.1377E-84  0.2000E+02
  -5.997  0.1377E-84  0.2000E+02
  -5.987  0.1377E-84  0.2000E+02
  -5.977  0.1377E-84  0.2000E+02
  -5.967  0.1377E-84  0.2000E+02
  -5.957  0.1377E-84  0.2000E+02
  -5.947  0.1377E-84  0.2000E+02
  -5.937  0.1377E-84  0.2000E+02
  -5.927  0.1377E-84  0.2000E+02
  -5.917  0.1377E-84  0.2000E+02
  -5.907  0.1377E-84  0.2000E+02
  -5.897  0.1377E-84  0.2000E+02
  -5.887  0.1377E-84  0.2000E+02
  -5.877  0.1377E-84  0.2000E+02
  -5.867  0.1377E-84  0.2000E+02
  -5.857  0.1377E-84  0.2000E+02
  -5.847  0.1377E-84  0.2000E+02
  -5.837  0.1377E-84  0.2000E+02
  -5.827  0.1377E-84  0.2000E+02
  -5.817  0.1377E-84  0.2000E+02
  -5.807  0.1377E-84  0.2000E+02
  -5.797  0.1377E-84  0.2000E+02
  -5.787  0.1377E-84  0.2000E+02
  -5.777  0.1377E-84  0.2000E+02
  -5.767  0.1377E-84  0.2000E+02
  -5.757  0.1377E-84  0.2000E+02
  -5.747  0.1377E-84  0.2000E+02
  -5.737  0.1377E-84  0.2000E+02
  -5.727  0.1377E-84  0.2000E+02
  -5.717  0.1377E-84  0.2000E+02
  -5.707  0.1377E-84  0.2000E+02
  -5.697  0.1377E-84  0.2000E+02
  -5.687  0.1377E-84  0.2000E+02
  -5.677  0.1377E-84  0.2000E+02
  -5.667  0.1377E-84  0.2000E+02
  -5.657  0.1377E-84  0.2000E+02
  -5.647  0.1377E-84  0.2000E+02
  -5.637  0.1377E-84  0.2000E+02
  -5.627  0.1377E-84  0.2000E+02
  -5.617  0.1377E-84  0.2000E+02
  -5.607  0.1377E-84  0.2000E+02
  -5.597  0.1377E-84  0.2000E+02
  -5.587  0.1377E-84  0.2000E+02
