#  E (eV)   dos(E)     Int dos(E) EFermi =  10.793 eV
 -12.025  0.2792E-03  0.2792E-05
 -12.015  0.3271E-03  0.6064E-05
 -12.005  0.3828E-03  0.9892E-05
 -11.995  0.4475E-03  0.1437E-04
 -11.985  0.5224E-03  0.1959E-04
 -11.975  0.6093E-03  0.2568E-04
 -11.965  0.7097E-03  0.3278E-04
 -11.955  0.8258E-03  0.4104E-04
 -11.945  0.9598E-03  0.5064E-04
 -11.935  0.1114E-02  0.6178E-04
 -11.925  0.1292E-02  0.7470E-04
 -11.915  0.1497E-02  0.8966E-04
 -11.905  0.1732E-02  0.1070E-03
 -11.895  0.2001E-02  0.1270E-03
 -11.885  0.2310E-02  0.1501E-03
 -11.875  0.2663E-02  0.1767E-03
 -11.865  0.3068E-02  0.2074E-03
 -11.855  0.3529E-02  0.2427E-03
 -11.845  0.4056E-02  0.2832E-03
 -11.835  0.4655E-02  0.3298E-03
 -11.825  0.5337E-02  0.3832E-03
 -11.815  0.6113E-02  0.4443E-03
 -11.805  0.6993E-02  0.5142E-03
 -11.795  0.7991E-02  0.5941E-03
 -11.785  0.9121E-02  0.6853E-03
 -11.775  0.1040E-01  0.7893E-03
 -11.765  0.1184E-01  0.9078E-03
 -11.755  0.1347E-01  0.1042E-02
 -11.745  0.1531E-01  0.1196E-02
 -11.735  0.1737E-01  0.1369E-02
 -11.725  0.1970E-01  0.1566E-02
 -11.715  0.2231E-01  0.1789E-02
 -11.705  0.2523E-01  0.2042E-02
 -11.695  0.2851E-01  0.2327E-02
 -11.685  0.3218E-01  0.2649E-02
 -11.675  0.3628E-01  0.3011E-02
 -11.665  0.4086E-01  0.3420E-02
 -11.655  0.4597E-01  0.3880E-02
 -11.645  0.5165E-01  0.4396E-02
 -11.635  0.5797E-01  0.4976E-02
 -11.625  0.6500E-01  0.5626E-02
 -11.615  0.7279E-01  0.6354E-02
 -11.605  0.8143E-01  0.7168E-02
 -11.595  0.9099E-01  0.8078E-02
 -11.585  0.1016E+00  0.9094E-02
 -11.575  0.1132E+00  0.1023E-01
 -11.565  0.1261E+00  0.1149E-01
 -11.555  0.1403E+00  0.1289E-01
 -11.545  0.1559E+00  0.1445E-01
 -11.535  0.1731E+00  0.1618E-01
 -11.525  0.1919E+00  0.1810E-01
 -11.515  0.2126E+00  0.2022E-01
 -11.505  0.2352E+00  0.2258E-01
 -11.495  0.2599E+00  0.2518E-01
 -11.485  0.2869E+00  0.2804E-01
 -11.475  0.3164E+00  0.3121E-01
 -11.465  0.3485E+00  0.3469E-01
 -11.455  0.3835E+00  0.3853E-01
 -11.445  0.4215E+00  0.4274E-01
 -11.435  0.4627E+00  0.4737E-01
 -11.425  0.5075E+00  0.5245E-01
 -11.415  0.5560E+00  0.5800E-01
 -11.405  0.6084E+00  0.6409E-01
 -11.395  0.6650E+00  0.7074E-01
 -11.385  0.7262E+00  0.7800E-01
 -11.375  0.7921E+00  0.8592E-01
 -11.365  0.8630E+00  0.9455E-01
 -11.355  0.9392E+00  0.1039E+00
 -11.345  0.1021E+01  0.1142E+00
 -11.335  0.1109E+01  0.1252E+00
 -11.325  0.1203E+01  0.1373E+00
 -11.315  0.1304E+01  0.1503E+00
 -11.305  0.1411E+01  0.1644E+00
 -11.295  0.1526E+01  0.1797E+00
 -11.285  0.1648E+01  0.1962E+00
 -11.275  0.1778E+01  0.2139E+00
 -11.265  0.1917E+01  0.2331E+00
 -11.255  0.2064E+01  0.2538E+00
 -11.245  0.2219E+01  0.2759E+00
 -11.235  0.2384E+01  0.2998E+00
 -11.225  0.2559E+01  0.3254E+00
 -11.215  0.2743E+01  0.3528E+00
 -11.205  0.2937E+01  0.3822E+00
 -11.195  0.3142E+01  0.4136E+00
 -11.185  0.3358E+01  0.4472E+00
 -11.175  0.3584E+01  0.4830E+00
 -11.165  0.3822E+01  0.5212E+00
 -11.155  0.4070E+01  0.5619E+00
 -11.145  0.4331E+01  0.6052E+00
 -11.135  0.4603E+01  0.6513E+00
 -11.125  0.4887E+01  0.7002E+00
 -11.115  0.5184E+01  0.7520E+00
 -11.105  0.5492E+01  0.8069E+00
 -11.095  0.5812E+01  0.8650E+00
 -11.085  0.6145E+01  0.9265E+00
 -11.075  0.6489E+01  0.9914E+00
 -11.065  0.6846E+01  0.1060E+01
 -11.055  0.7214E+01  0.1132E+01
 -11.045  0.7595E+01  0.1208E+01
 -11.035  0.7987E+01  0.1288E+01
 -11.025  0.8390E+01  0.1372E+01
 -11.015  0.8804E+01  0.1460E+01
 -11.005  0.9229E+01  0.1552E+01
 -10.995  0.9664E+01  0.1649E+01
 -10.985  0.1011E+02  0.1750E+01
 -10.975  0.1056E+02  0.1855E+01
 -10.965  0.1103E+02  0.1966E+01
 -10.955  0.1150E+02  0.2081E+01
 -10.945  0.1198E+02  0.2200E+01
 -10.935  0.1246E+02  0.2325E+01
 -10.925  0.1295E+02  0.2455E+01
 -10.915  0.1345E+02  0.2589E+01
 -10.905  0.1395E+02  0.2728E+01
 -10.895  0.1445E+02  0.2873E+01
 -10.885  0.1496E+02  0.3023E+01
 -10.875  0.1547E+02  0.3177E+01
 -10.865  0.1598E+02  0.3337E+01
 -10.855  0.1649E+02  0.3502E+01
 -10.845  0.1699E+02  0.3672E+01
 -10.835  0.1750E+02  0.3847E+01
 -10.825  0.1799E+02  0.4027E+01
 -10.815  0.1849E+02  0.4212E+01
 -10.805  0.1898E+02  0.4401E+01
 -10.795  0.1946E+02  0.4596E+01
 -10.785  0.1993E+02  0.4795E+01
 -10.775  0.2039E+02  0.4999E+01
 -10.765  0.2084E+02  0.5208E+01
 -10.755  0.2128E+02  0.5420E+01
 -10.745  0.2170E+02  0.5637E+01
 -10.735  0.2211E+02  0.5859E+01
 -10.725  0.2251E+02  0.6084E+01
 -10.715  0.2288E+02  0.6312E+01
 -10.705  0.2324E+02  0.6545E+01
 -10.695  0.2358E+02  0.6781E+01
 -10.685  0.2390E+02  0.7020E+01
 -10.675  0.2420E+02  0.7262E+01
 -10.665  0.2447E+02  0.7506E+01
 -10.655  0.2473E+02  0.7754E+01
 -10.645  0.2496E+02  0.8003E+01
 -10.635  0.2516E+02  0.8255E+01
 -10.625  0.2534E+02  0.8508E+01
 -10.615  0.2550E+02  0.8763E+01
 -10.605  0.2563E+02  0.9020E+01
 -10.595  0.2573E+02  0.9277E+01
 -10.585  0.2581E+02  0.9535E+01
 -10.575  0.2586E+02  0.9794E+01
 -10.565  0.2588E+02  0.1005E+02
 -10.555  0.2588E+02  0.1031E+02
 -10.545  0.2584E+02  0.1057E+02
 -10.535  0.2579E+02  0.1083E+02
 -10.525  0.2570E+02  0.1108E+02
 -10.515  0.2559E+02  0.1134E+02
 -10.505  0.2545E+02  0.1159E+02
 -10.495  0.2529E+02  0.1185E+02
 -10.485  0.2510E+02  0.1210E+02
 -10.475  0.2488E+02  0.1235E+02
 -10.465  0.2464E+02  0.1259E+02
 -10.455  0.2438E+02  0.1284E+02
 -10.445  0.2410E+02  0.1308E+02
 -10.435  0.2379E+02  0.1332E+02
 -10.425  0.2347E+02  0.1355E+02
 -10.415  0.2312E+02  0.1378E+02
 -10.405  0.2275E+02  0.1401E+02
 -10.395  0.2237E+02  0.1423E+02
 -10.385  0.2197E+02  0.1445E+02
 -10.375  0.2155E+02  0.1467E+02
 -10.365  0.2112E+02  0.1488E+02
 -10.355  0.2068E+02  0.1509E+02
 -10.345  0.2023E+02  0.1529E+02
 -10.335  0.1976E+02  0.1549E+02
 -10.325  0.1928E+02  0.1568E+02
 -10.315  0.1880E+02  0.1587E+02
 -10.305  0.1831E+02  0.1605E+02
 -10.295  0.1781E+02  0.1623E+02
 -10.285  0.1731E+02  0.1640E+02
 -10.275  0.1680E+02  0.1657E+02
 -10.265  0.1630E+02  0.1673E+02
 -10.255  0.1579E+02  0.1689E+02
 -10.245  0.1528E+02  0.1704E+02
 -10.235  0.1477E+02  0.1719E+02
 -10.225  0.1426E+02  0.1733E+02
 -10.215  0.1376E+02  0.1747E+02
 -10.205  0.1325E+02  0.1760E+02
 -10.195  0.1276E+02  0.1773E+02
 -10.185  0.1227E+02  0.1785E+02
 -10.175  0.1178E+02  0.1797E+02
 -10.165  0.1131E+02  0.1809E+02
 -10.155  0.1084E+02  0.1819E+02
 -10.145  0.1038E+02  0.1830E+02
 -10.135  0.9925E+01  0.1840E+02
 -10.125  0.9483E+01  0.1849E+02
 -10.115  0.9051E+01  0.1858E+02
 -10.105  0.8629E+01  0.1867E+02
 -10.095  0.8218E+01  0.1875E+02
 -10.085  0.7818E+01  0.1883E+02
 -10.075  0.7430E+01  0.1890E+02
 -10.065  0.7054E+01  0.1897E+02
 -10.055  0.6689E+01  0.1904E+02
 -10.045  0.6337E+01  0.1910E+02
 -10.035  0.5996E+01  0.1916E+02
 -10.025  0.5668E+01  0.1922E+02
 -10.015  0.5352E+01  0.1927E+02
 -10.005  0.5048E+01  0.1932E+02
  -9.995  0.4757E+01  0.1937E+02
  -9.985  0.4477E+01  0.1942E+02
  -9.975  0.4210E+01  0.1946E+02
  -9.965  0.3954E+01  0.1950E+02
  -9.955  0.3709E+01  0.1954E+02
  -9.945  0.3476E+01  0.1957E+02
  -9.935  0.3254E+01  0.1960E+02
  -9.925  0.3043E+01  0.1963E+02
  -9.915  0.2843E+01  0.1966E+02
  -9.905  0.2653E+01  0.1969E+02
  -9.895  0.2473E+01  0.1971E+02
  -9.885  0.2303E+01  0.1974E+02
  -9.875  0.2142E+01  0.1976E+02
  -9.865  0.1990E+01  0.1978E+02
  -9.855  0.1847E+01  0.1980E+02
  -9.845  0.1712E+01  0.1981E+02
  -9.835  0.1586E+01  0.1983E+02
  -9.825  0.1467E+01  0.1984E+02
  -9.815  0.1356E+01  0.1986E+02
  -9.805  0.1251E+01  0.1987E+02
  -9.795  0.1154E+01  0.1988E+02
  -9.785  0.1063E+01  0.1989E+02
  -9.775  0.9779E+00  0.1990E+02
  -9.765  0.8988E+00  0.1991E+02
  -9.755  0.8252E+00  0.1992E+02
  -9.745  0.7568E+00  0.1993E+02
  -9.735  0.6933E+00  0.1993E+02
  -9.725  0.6344E+00  0.1994E+02
  -9.715  0.5799E+00  0.1995E+02
  -9.705  0.5295E+00  0.1995E+02
  -9.695  0.4830E+00  0.1996E+02
  -9.685  0.4400E+00  0.1996E+02
  -9.675  0.4005E+00  0.1996E+02
  -9.665  0.3641E+00  0.1997E+02
  -9.655  0.3306E+00  0.1997E+02
  -9.645  0.2999E+00  0.1997E+02
  -9.635  0.2718E+00  0.1998E+02
  -9.625  0.2460E+00  0.1998E+02
  -9.615  0.2224E+00  0.1998E+02
  -9.605  0.2009E+00  0.1998E+02
  -9.595  0.1812E+00  0.1998E+02
  -9.585  0.1633E+00  0.1999E+02
  -9.575  0.1470E+00  0.1999E+02
  -9.565  0.1322E+00  0.1999E+02
  -9.555  0.1187E+00  0.1999E+02
  -9.545  0.1065E+00  0.1999E+02
  -9.535  0.9548E-01  0.1999E+02
  -9.525  0.8548E-01  0.1999E+02
  -9.515  0.7644E-01  0.1999E+02
  -9.505  0.6828E-01  0.1999E+02
  -9.495  0.6093E-01  0.2000E+02
  -9.485  0.5431E-01  0.2000E+02
  -9.475  0.4835E-01  0.2000E+02
  -9.465  0.4300E-01  0.2000E+02
  -9.455  0.3820E-01  0.2000E+02
  -9.445  0.3390E-01  0.2000E+02
  -9.435  0.3005E-01  0.2000E+02
  -9.425  0.2660E-01  0.2000E+02
  -9.415  0.2353E-01  0.2000E+02
  -9.405  0.2079E-01  0.2000E+02
  -9.395  0.1834E-01  0.2000E+02
  -9.385  0.1617E-01  0.2000E+02
  -9.375  0.1424E-01  0.2000E+02
  -9.365  0.1252E-01  0.2000E+02
  -9.355  0.1100E-01  0.2000E+02
  -9.345  0.9655E-02  0.2000E+02
  -9.335  0.8464E-02  0.2000E+02
  -9.325  0.7411E-02  0.2000E+02
  -9.315  0.6482E-02  0.2000E+02
  -9.305  0.5664E-02  0.2000E+02
  -9.295  0.4943E-02  0.2000E+02
  -9.285  0.4309E-02  0.2000E+02
  -9.275  0.3752E-02  0.2000E+02
  -9.265  0.3264E-02  0.2000E+02
  -9.255  0.2835E-02  0.2000E+02
  -9.245  0.2461E-02  0.2000E+02
  -9.235  0.2133E-02  0.2000E+02
  -9.225  0.1847E-02  0.2000E+02
  -9.215  0.1598E-02  0.2000E+02
  -9.205  0.1381E-02  0.2000E+02
  -9.195  0.1191E-02  0.2000E+02
  -9.185  0.1027E-02  0.2000E+02
  -9.175  0.8844E-03  0.2000E+02
  -9.165  0.7607E-03  0.2000E+02
  -9.155  0.6536E-03  0.2000E+02
  -9.145  0.5609E-03  0.2000E+02
  -9.135  0.4808E-03  0.2000E+02
  -9.125  0.4117E-03  0.2000E+02
  -9.115  0.3522E-03  0.2000E+02
  -9.105  0.3009E-03  0.2000E+02
  -9.095  0.2568E-03  0.2000E+02
  -9.085  0.2189E-03  0.2000E+02
  -9.075  0.1864E-03  0.2000E+02
  -9.065  0.1585E-03  0.2000E+02
  -9.055  0.1347E-03  0.2000E+02
  -9.045  0.1143E-03  0.2000E+02
  -9.035  0.9688E-04  0.2000E+02
  -9.025  0.8203E-04  0.2000E+02
  -9.015  0.6938E-04  0.2000E+02
  -9.005  0.5861E-04  0.2000E+02
  -8.995  0.4946E-04  0.2000E+02
  -8.985  0.4169E-04  0.2000E+02
  -8.975  0.3510E-04  0.2000E+02
  -8.965  0.2952E-04  0.2000E+02
  -8.955  0.2480E-04  0.2000E+02
  -8.945  0.2081E-04  0.2000E+02
  -8.935  0.1744E-04  0.2000E+02
  -8.925  0.1460E-04  0.2000E+02
  -8.915  0.1221E-04  0.2000E+02
  -8.905  0.1020E-04  0.2000E+02
  -8.895  0.8511E-05  0.2000E+02
  -8.885  0.7093E-05  0.2000E+02
  -8.875  0.5905E-05  0.2000E+02
  -8.865  0.4910E-05  0.2000E+02
  -8.855  0.4078E-05  0.2000E+02
  -8.845  0.3384E-05  0.2000E+02
  -8.835  0.2804E-05  0.2000E+02
  -8.825  0.2321E-05  0.2000E+02
  -8.815  0.1919E-05  0.2000E+02
  -8.805  0.1585E-05  0.2000E+02
  -8.795  0.1308E-05  0.2000E+02
  -8.785  0.1078E-05  0.2000E+02
  -8.775  0.8869E-06  0.2000E+02
  -8.765  0.7292E-06  0.2000E+02
  -8.755  0.5988E-06  0.2000E+02
  -8.745  0.4912E-06  0.2000E+02
  -8.735  0.4025E-06  0.2000E+02
  -8.725  0.3294E-06  0.2000E+02
  -8.715  0.2693E-06  0.2000E+02
  -8.705  0.2199E-06  0.2000E+02
  -8.695  0.1793E-06  0.2000E+02
  -8.685  0.1461E-06  0.2000E+02
  -8.675  0.1189E-06  0.2000E+02
  -8.665  0.9664E-07  0.2000E+02
  -8.655  0.7846E-07  0.2000E+02
  -8.645  0.6363E-07  0.2000E+02
  -8.635  0.5155E-07  0.2000E+02
  -8.625  0.4171E-07  0.2000E+02
  -8.615  0.3371E-07  0.2000E+02
  -8.605  0.2721E-07  0.2000E+02
  -8.595  0.2194E-07  0.2000E+02
  -8.585  0.1767E-07  0.2000E+02
  -8.575  0.1422E-07  0.2000E+02
  -8.565  0.1143E-07  0.2000E+02
  -8.555  0.9172E-08  0.2000E+02
  -8.545  0.7354E-08  0.2000E+02
  -8.535  0.5889E-08  0.2000E+02
  -8.525  0.4711E-08  0.2000E+02
  -8.515  0.3764E-08  0.2000E+02
  -8.505  0.3004E-08  0.2000E+02
  -8.495  0.2395E-08  0.2000E+02
  -8.485  0.1907E-08  0.2000E+02
  -8.475  0.1517E-08  0.2000E+02
  -8.465  0.1205E-08  0.2000E+02
  -8.455  0.9561E-09  0.2000E+02
  -8.445  0.7578E-09  0.2000E+02
  -8.435  0.6000E-09  0.2000E+02
  -8.425  0.4745E-09  0.2000E+02
  -8.415  0.3748E-09  0.2000E+02
  -8.405  0.2957E-09  0.2000E+02
  -8.395  0.2330E-09  0.2000E+02
  -8.385  0.1834E-09  0.2000E+02
  -8.375  0.1442E-09  0.2000E+02
  -8.365  0.1133E-09  0.2000E+02
  -8.355  0.8885E-10  0.2000E+02
  -8.345  0.6962E-10  0.2000E+02
  -8.335  0.5449E-10  0.2000E+02
  -8.325  0.4259E-10  0.2000E+02
  -8.315  0.3326E-10  0.2000E+02
  -8.305  0.2594E-10  0.2000E+02
  -8.295  0.2021E-10  0.2000E+02
  -8.285  0.1572E-10  0.2000E+02
  -8.275  0.1222E-10  0.2000E+02
  -8.265  0.9489E-11  0.2000E+02
  -8.255  0.7358E-11  0.2000E+02
  -8.245  0.5699E-11  0.2000E+02
  -8.235  0.4409E-11  0.2000E+02
  -8.225  0.3407E-11  0.2000E+02
  -8.215  0.2630E-11  0.2000E+02
  -8.205  0.2028E-11  0.2000E+02
  -8.195  0.1562E-11  0.2000E+02
  -8.185  0.1201E-11  0.2000E+02
  -8.175  0.9228E-12  0.2000E+02
  -8.165  0.7082E-12  0.2000E+02
  -8.155  0.5429E-12  0.2000E+02
  -8.145  0.4156E-12  0.2000E+02
  -8.135  0.3179E-12  0.2000E+02
  -8.125  0.2428E-12  0.2000E+02
  -8.115  0.1853E-12  0.2000E+02
  -8.105  0.1412E-12  0.2000E+02
  -8.095  0.1075E-12  0.2000E+02
  -8.085  0.8172E-13  0.2000E+02
  -8.075  0.6206E-13  0.2000E+02
  -8.065  0.4708E-13  0.2000E+02
  -8.055  0.3567E-13  0.2000E+02
  -8.045  0.2700E-13  0.2000E+02
  -8.035  0.2041E-13  0.2000E+02
  -8.025  0.1541E-13  0.2000E+02
  -8.015  0.1162E-13  0.2000E+02
  -8.005  0.8754E-14  0.2000E+02
  -7.995  0.6587E-14  0.2000E+02
  -7.985  0.4951E-14  0.2000E+02
  -7.975  0.3716E-14  0.2000E+02
  -7.965  0.2787E-14  0.2000E+02
  -7.955  0.2087E-14  0.2000E+02
  -7.945  0.1561E-14  0.2000E+02
  -7.935  0.1167E-14  0.2000E+02
  -7.925  0.8706E-15  0.2000E+02
  -7.915  0.6490E-15  0.2000E+02
  -7.905  0.4832E-15  0.2000E+02
  -7.895  0.3594E-15  0.2000E+02
  -7.885  0.2670E-15  0.2000E+02
  -7.875  0.1981E-15  0.2000E+02
  -7.865  0.1468E-15  0.2000E+02
  -7.855  0.1087E-15  0.2000E+02
  -7.845  0.8036E-16  0.2000E+02
  -7.835  0.5935E-16  0.2000E+02
  -7.825  0.4378E-16  0.2000E+02
  -7.815  0.3226E-16  0.2000E+02
  -7.805  0.2374E-16  0.2000E+02
  -7.795  0.1745E-16  0.2000E+02
  -7.785  0.1281E-16  0.2000E+02
  -7.775  0.9398E-17  0.2000E+02
  -7.765  0.6885E-17  0.2000E+02
  -7.755  0.5037E-17  0.2000E+02
  -7.745  0.3681E-17  0.2000E+02
  -7.735  0.2687E-17  0.2000E+02
  -7.725  0.1959E-17  0.2000E+02
  -7.715  0.1427E-17  0.2000E+02
  -7.705  0.1038E-17  0.2000E+02
  -7.695  0.7542E-18  0.2000E+02
  -7.685  0.5473E-18  0.2000E+02
  -7.675  0.3967E-18  0.2000E+02
  -7.665  0.2872E-18  0.2000E+02
  -7.655  0.2077E-18  0.2000E+02
  -7.645  0.1500E-18  0.2000E+02
  -7.635  0.1083E-18  0.2000E+02
  -7.625  0.7801E-19  0.2000E+02
  -7.615  0.5615E-19  0.2000E+02
  -7.605  0.4037E-19  0.2000E+02
  -7.595  0.2899E-19  0.2000E+02
  -7.585  0.2079E-19  0.2000E+02
  -7.575  0.1490E-19  0.2000E+02
  -7.565  0.1066E-19  0.2000E+02
  -7.555  0.7620E-20  0.2000E+02
  -7.545  0.5440E-20  0.2000E+02
  -7.535  0.3879E-20  0.2000E+02
  -7.525  0.2763E-20  0.2000E+02
  -7.515  0.1965E-20  0.2000E+02
  -7.505  0.1397E-20  0.2000E+02
  -7.495  0.9912E-21  0.2000E+02
  -7.485  0.7027E-21  0.2000E+02
  -7.475  0.4975E-21  0.2000E+02
  -7.465  0.3519E-21  0.2000E+02
  -7.455  0.2486E-21  0.2000E+02
  -7.445  0.1754E-21  0.2000E+02
  -7.435  0.1236E-21  0.2000E+02
  -7.425  0.8701E-22  0.2000E+02
  -7.415  0.6118E-22  0.2000E+02
  -7.405  0.4296E-22  0.2000E+02
  -7.395  0.3014E-22  0.2000E+02
  -7.385  0.2112E-22  0.2000E+02
  -7.375  0.1478E-22  0.2000E+02
  -7.365  0.1033E-22  0.2000E+02
  -7.355  0.7211E-23  0.2000E+02
  -7.345  0.5029E-23  0.2000E+02
  -7.335  0.3503E-23  0.2000E+02
  -7.325  0.2437E-23  0.2000E+02
  -7.315  0.1693E-23  0.2000E+02
  -7.305  0.1175E-23  0.2000E+02
  -7.295  0.8147E-24  0.2000E+02
  -7.285  0.5642E-24  0.2000E+02
  -7.275  0.3902E-24  0.2000E+02
  -7.265  0.2695E-24  0.2000E+02
  -7.255  0.1860E-24  0.2000E+02
  -7.245  0.1282E-24  0.2000E+02
  -7.235  0.8823E-25  0.2000E+02
  -7.225  0.6067E-25  0.2000E+02
  -7.215  0.4166E-25  0.2000E+02
  -7.205  0.2858E-25  0.2000E+02
  -7.195  0.1958E-25  0.2000E+02
  -7.185  0.1340E-25  0.2000E+02
  -7.175  0.9159E-26  0.2000E+02
  -7.165  0.6253E-26  0.2000E+02
  -7.155  0.4264E-26  0.2000E+02
  -7.145  0.2904E-26  0.2000E+02
  -7.135  0.1976E-26  0.2000E+02
  -7.125  0.1343E-26  0.2000E+02
  -7.115  0.9112E-27  0.2000E+02
  -7.105  0.6177E-27  0.2000E+02
  -7.095  0.4183E-27  0.2000E+02
  -7.085  0.2829E-27  0.2000E+02
  -7.075  0.1911E-27  0.2000E+02
  -7.065  0.1289E-27  0.2000E+02
  -7.055  0.8689E-28  0.2000E+02
  -7.045  0.5849E-28  0.2000E+02
  -7.035  0.3932E-28  0.2000E+02
  -7.025  0.2641E-28  0.2000E+02
  -7.015  0.1771E-28  0.2000E+02
  -7.005  0.1187E-28  0.2000E+02
  -6.995  0.7940E-29  0.2000E+02
  -6.985  0.5307E-29  0.2000E+02
  -6.975  0.3543E-29  0.2000E+02
  -6.965  0.2362E-29  0.2000E+02
  -6.955  0.1573E-29  0.2000E+02
  -6.945  0.1047E-29  0.2000E+02
  -6.935  0.6954E-30  0.2000E+02
  -6.925  0.4615E-30  0.2000E+02
  -6.915  0.3059E-30  0.2000E+02
  -6.905  0.2026E-30  0.2000E+02
  -6.895  0.1340E-30  0.2000E+02
  -6.885  0.8848E-31  0.2000E+02
  -6.875  0.5837E-31  0.2000E+02
  -6.865  0.3847E-31  0.2000E+02
  -6.855  0.2532E-31  0.2000E+02
  -6.845  0.1664E-31  0.2000E+02
  -6.835  0.1093E-31  0.2000E+02
  -6.825  0.7168E-32  0.2000E+02
  -6.815  0.4695E-32  0.2000E+02
  -6.805  0.3072E-32  0.2000E+02
  -6.795  0.2008E-32  0.2000E+02
  -6.785  0.1311E-32  0.2000E+02
  -6.775  0.8545E-33  0.2000E+02
  -6.765  0.5565E-33  0.2000E+02
  -6.755  0.3620E-33  0.2000E+02
  -6.745  0.2352E-33  0.2000E+02
  -6.735  0.1526E-33  0.2000E+02
  -6.725  0.9890E-34  0.2000E+02
  -6.715  0.6403E-34  0.2000E+02
  -6.705  0.4140E-34  0.2000E+02
  -6.695  0.2674E-34  0.2000E+02
  -6.685  0.1725E-34  0.2000E+02
  -6.675  0.1111E-34  0.2000E+02
  -6.665  0.7152E-35  0.2000E+02
  -6.655  0.4597E-35  0.2000E+02
  -6.645  0.2951E-35  0.2000E+02
  -6.635  0.1893E-35  0.2000E+02
  -6.625  0.1212E-35  0.2000E+02
  -6.615  0.7755E-36  0.2000E+02
  -6.605  0.4956E-36  0.2000E+02
  -6.595  0.3163E-36  0.2000E+02
  -6.585  0.2016E-36  0.2000E+02
  -6.575  0.1284E-36  0.2000E+02
  -6.565  0.8165E-37  0.2000E+02
  -6.555  0.5186E-37  0.2000E+02
  -6.545  0.3291E-37  0.2000E+02
  -6.535  0.2085E-37  0.2000E+02
  -6.525  0.1320E-37  0.2000E+02
  -6.515  0.8345E-38  0.2000E+02
  -6.505  0.5269E-38  0.2000E+02
  -6.495  0.3323E-38  0.2000E+02
  -6.485  0.2094E-38  0.2000E+02
  -6.475  0.1317E-38  0.2000E+02
  -6.465  0.8279E-39  0.2000E+02
  -6.455  0.5197E-39  0.2000E+02
  -6.445  0.3259E-39  0.2000E+02
  -6.435  0.2041E-39  0.2000E+02
  -6.425  0.1276E-39  0.2000E+02
  -6.415  0.7975E-40  0.2000E+02
  -6.405  0.4976E-40  0.2000E+02
  -6.395  0.3102E-40  0.2000E+02
  -6.385  0.1931E-40  0.2000E+02
  -6.375  0.1201E-40  0.2000E+02
  -6.365  0.7457E-41  0.2000E+02
  -6.355  0.4626E-41  0.2000E+02
  -6.345  0.2866E-41  0.2000E+02
  -6.335  0.1774E-41  0.2000E+02
  -6.325  0.1096E-41  0.2000E+02
  -6.315  0.6768E-42  0.2000E+02
  -6.305  0.4174E-42  0.2000E+02
  -6.295  0.2571E-42  0.2000E+02
  -6.285  0.1582E-42  0.2000E+02
  -6.275  0.9718E-43  0.2000E+02
  -6.265  0.5964E-43  0.2000E+02
  -6.255  0.3656E-43  0.2000E+02
  -6.245  0.2239E-43  0.2000E+02
  -6.235  0.1369E-43  0.2000E+02
  -6.225  0.8362E-44  0.2000E+02
  -6.215  0.5102E-44  0.2000E+02
  -6.205  0.3109E-44  0.2000E+02
  -6.195  0.1892E-44  0.2000E+02
  -6.185  0.1150E-44  0.2000E+02
  -6.175  0.6985E-45  0.2000E+02
  -6.165  0.4236E-45  0.2000E+02
  -6.155  0.2566E-45  0.2000E+02
  -6.145  0.1553E-45  0.2000E+02
  -6.135  0.9383E-46  0.2000E+02
  -6.125  0.5664E-46  0.2000E+02
  -6.115  0.3415E-46  0.2000E+02
  -6.105  0.2056E-46  0.2000E+02
  -6.095  0.1237E-46  0.2000E+02
  -6.085  0.7430E-47  0.2000E+02
  -6.075  0.4458E-47  0.2000E+02
  -6.065  0.2672E-47  0.2000E+02
  -6.055  0.1599E-47  0.2000E+02
  -6.045  0.9562E-48  0.2000E+02
  -6.035  0.5711E-48  0.2000E+02
  -6.025  0.3406E-48  0.2000E+02
  -6.015  0.2029E-48  0.2000E+02
  -6.005  0.1208E-48  0.2000E+02
  -5.995  0.7177E-49  0.2000E+02
