#  E (eV)   dos(E)     Int dos(E) EFermi =  10.793 eV
 -11.208  0.1014E-03  0.1014E-05
 -11.198  0.1646E-03  0.2660E-05
 -11.188  0.2647E-03  0.5307E-05
 -11.178  0.4214E-03  0.9520E-05
 -11.168  0.6641E-03  0.1616E-04
 -11.158  0.1036E-02  0.2652E-04
 -11.148  0.1601E-02  0.4253E-04
 -11.138  0.2448E-02  0.6701E-04
 -11.128  0.3707E-02  0.1041E-03
 -11.118  0.5558E-02  0.1597E-03
 -11.108  0.8251E-02  0.2422E-03
 -11.098  0.1213E-01  0.3634E-03
 -11.088  0.1765E-01  0.5399E-03
 -11.078  0.2543E-01  0.7943E-03
 -11.068  0.3629E-01  0.1157E-02
 -11.058  0.5128E-01  0.1670E-02
 -11.048  0.7175E-01  0.2387E-02
 -11.038  0.9941E-01  0.3382E-02
 -11.028  0.1364E+00  0.4746E-02
 -11.018  0.1854E+00  0.6600E-02
 -11.008  0.2495E+00  0.9095E-02
 -10.998  0.3326E+00  0.1242E-01
 -10.988  0.4392E+00  0.1681E-01
 -10.978  0.5745E+00  0.2256E-01
 -10.968  0.7443E+00  0.3000E-01
 -10.958  0.9554E+00  0.3956E-01
 -10.948  0.1215E+01  0.5171E-01
 -10.938  0.1531E+01  0.6702E-01
 -10.928  0.1912E+01  0.8613E-01
 -10.918  0.2366E+01  0.1098E+00
 -10.908  0.2901E+01  0.1388E+00
 -10.898  0.3527E+01  0.1741E+00
 -10.888  0.4250E+01  0.2166E+00
 -10.878  0.5078E+01  0.2673E+00
 -10.868  0.6016E+01  0.3275E+00
 -10.858  0.7068E+01  0.3982E+00
 -10.848  0.8238E+01  0.4806E+00
 -10.838  0.9525E+01  0.5758E+00
 -10.828  0.1093E+02  0.6851E+00
 -10.818  0.1244E+02  0.8095E+00
 -10.808  0.1406E+02  0.9501E+00
 -10.798  0.1578E+02  0.1108E+01
 -10.788  0.1759E+02  0.1284E+01
 -10.778  0.1947E+02  0.1479E+01
 -10.768  0.2142E+02  0.1693E+01
 -10.758  0.2342E+02  0.1927E+01
 -10.748  0.2545E+02  0.2181E+01
 -10.738  0.2750E+02  0.2457E+01
 -10.728  0.2956E+02  0.2752E+01
 -10.718  0.3162E+02  0.3068E+01
 -10.708  0.3365E+02  0.3405E+01
 -10.698  0.3564E+02  0.3761E+01
 -10.688  0.3759E+02  0.4137E+01
 -10.678  0.3948E+02  0.4532E+01
 -10.668  0.4130E+02  0.4945E+01
 -10.658  0.4304E+02  0.5375E+01
 -10.648  0.4468E+02  0.5822E+01
 -10.638  0.4622E+02  0.6284E+01
 -10.628  0.4763E+02  0.6761E+01
 -10.618  0.4892E+02  0.7250E+01
 -10.608  0.5007E+02  0.7751E+01
 -10.598  0.5107E+02  0.8261E+01
 -10.588  0.5189E+02  0.8780E+01
 -10.578  0.5254E+02  0.9306E+01
 -10.568  0.5300E+02  0.9836E+01
 -10.558  0.5325E+02  0.1037E+02
 -10.548  0.5329E+02  0.1090E+02
 -10.538  0.5312E+02  0.1143E+02
 -10.528  0.5272E+02  0.1196E+02
 -10.518  0.5209E+02  0.1248E+02
 -10.508  0.5124E+02  0.1299E+02
 -10.498  0.5017E+02  0.1349E+02
 -10.488  0.4889E+02  0.1398E+02
 -10.478  0.4741E+02  0.1446E+02
 -10.468  0.4574E+02  0.1491E+02
 -10.458  0.4391E+02  0.1535E+02
 -10.448  0.4193E+02  0.1577E+02
 -10.438  0.3982E+02  0.1617E+02
 -10.428  0.3762E+02  0.1655E+02
 -10.418  0.3535E+02  0.1690E+02
 -10.408  0.3303E+02  0.1723E+02
 -10.398  0.3069E+02  0.1754E+02
 -10.388  0.2835E+02  0.1782E+02
 -10.378  0.2604E+02  0.1808E+02
 -10.368  0.2378E+02  0.1832E+02
 -10.358  0.2159E+02  0.1854E+02
 -10.348  0.1949E+02  0.1873E+02
 -10.338  0.1748E+02  0.1891E+02
 -10.328  0.1559E+02  0.1906E+02
 -10.318  0.1382E+02  0.1920E+02
 -10.308  0.1217E+02  0.1932E+02
 -10.298  0.1065E+02  0.1943E+02
 -10.288  0.9265E+01  0.1952E+02
 -10.278  0.8006E+01  0.1960E+02
 -10.268  0.6873E+01  0.1967E+02
 -10.258  0.5861E+01  0.1973E+02
 -10.248  0.4964E+01  0.1978E+02
 -10.238  0.4176E+01  0.1982E+02
 -10.228  0.3489E+01  0.1985E+02
 -10.218  0.2894E+01  0.1988E+02
 -10.208  0.2383E+01  0.1991E+02
 -10.198  0.1948E+01  0.1993E+02
 -10.188  0.1581E+01  0.1994E+02
 -10.178  0.1273E+01  0.1996E+02
 -10.168  0.1017E+01  0.1997E+02
 -10.158  0.8064E+00  0.1997E+02
 -10.148  0.6343E+00  0.1998E+02
 -10.138  0.4949E+00  0.1998E+02
 -10.128  0.3830E+00  0.1999E+02
 -10.118  0.2940E+00  0.1999E+02
 -10.108  0.2237E+00  0.1999E+02
 -10.098  0.1688E+00  0.2000E+02
 -10.088  0.1263E+00  0.2000E+02
 -10.078  0.9368E-01  0.2000E+02
 -10.068  0.6887E-01  0.2000E+02
 -10.058  0.5018E-01  0.2000E+02
 -10.048  0.3624E-01  0.2000E+02
 -10.038  0.2593E-01  0.2000E+02
 -10.028  0.1839E-01  0.2000E+02
 -10.018  0.1292E-01  0.2000E+02
 -10.008  0.8994E-02  0.2000E+02
  -9.998  0.6203E-02  0.2000E+02
  -9.988  0.4237E-02  0.2000E+02
  -9.978  0.2868E-02  0.2000E+02
  -9.968  0.1922E-02  0.2000E+02
  -9.958  0.1276E-02  0.2000E+02
  -9.948  0.8392E-03  0.2000E+02
  -9.938  0.5465E-03  0.2000E+02
  -9.928  0.3525E-03  0.2000E+02
  -9.918  0.2251E-03  0.2000E+02
  -9.908  0.1424E-03  0.2000E+02
  -9.898  0.8915E-04  0.2000E+02
  -9.888  0.5528E-04  0.2000E+02
  -9.878  0.3394E-04  0.2000E+02
  -9.868  0.2063E-04  0.2000E+02
  -9.858  0.1242E-04  0.2000E+02
  -9.848  0.7399E-05  0.2000E+02
  -9.838  0.4365E-05  0.2000E+02
  -9.828  0.2549E-05  0.2000E+02
  -9.818  0.1474E-05  0.2000E+02
  -9.808  0.8434E-06  0.2000E+02
  -9.798  0.4778E-06  0.2000E+02
  -9.788  0.2680E-06  0.2000E+02
  -9.778  0.1488E-06  0.2000E+02
  -9.768  0.8174E-07  0.2000E+02
  -9.758  0.4446E-07  0.2000E+02
  -9.748  0.2394E-07  0.2000E+02
  -9.738  0.1276E-07  0.2000E+02
  -9.728  0.6728E-08  0.2000E+02
  -9.718  0.3512E-08  0.2000E+02
  -9.708  0.1815E-08  0.2000E+02
  -9.698  0.9281E-09  0.2000E+02
  -9.688  0.4697E-09  0.2000E+02
  -9.678  0.2353E-09  0.2000E+02
  -9.668  0.1167E-09  0.2000E+02
  -9.658  0.5724E-10  0.2000E+02
  -9.648  0.2779E-10  0.2000E+02
  -9.638  0.1336E-10  0.2000E+02
  -9.628  0.6352E-11  0.2000E+02
  -9.618  0.2990E-11  0.2000E+02
  -9.608  0.1393E-11  0.2000E+02
  -9.598  0.6419E-12  0.2000E+02
  -9.588  0.2928E-12  0.2000E+02
  -9.578  0.1322E-12  0.2000E+02
  -9.568  0.5905E-13  0.2000E+02
  -9.558  0.2610E-13  0.2000E+02
  -9.548  0.1142E-13  0.2000E+02
  -9.538  0.4944E-14  0.2000E+02
  -9.528  0.2118E-14  0.2000E+02
  -9.518  0.8977E-15  0.2000E+02
  -9.508  0.3766E-15  0.2000E+02
  -9.498  0.1563E-15  0.2000E+02
  -9.488  0.6420E-16  0.2000E+02
  -9.478  0.2609E-16  0.2000E+02
  -9.468  0.1049E-16  0.2000E+02
  -9.458  0.4176E-17  0.2000E+02
  -9.448  0.1644E-17  0.2000E+02
  -9.438  0.6408E-18  0.2000E+02
  -9.428  0.2471E-18  0.2000E+02
  -9.418  0.9425E-19  0.2000E+02
  -9.408  0.3558E-19  0.2000E+02
  -9.398  0.1329E-19  0.2000E+02
  -9.388  0.4912E-20  0.2000E+02
  -9.378  0.1796E-20  0.2000E+02
  -9.368  0.6500E-21  0.2000E+02
  -9.358  0.2327E-21  0.2000E+02
  -9.348  0.8244E-22  0.2000E+02
  -9.338  0.2890E-22  0.2000E+02
  -9.328  0.1002E-22  0.2000E+02
  -9.318  0.3439E-23  0.2000E+02
  -9.308  0.1168E-23  0.2000E+02
  -9.298  0.3924E-24  0.2000E+02
  -9.288  0.1304E-24  0.2000E+02
  -9.278  0.4290E-25  0.2000E+02
  -9.268  0.1396E-25  0.2000E+02
  -9.258  0.4495E-26  0.2000E+02
  -9.248  0.1432E-26  0.2000E+02
  -9.238  0.4513E-27  0.2000E+02
  -9.228  0.1408E-27  0.2000E+02
  -9.218  0.4343E-28  0.2000E+02
  -9.208  0.1326E-28  0.2000E+02
  -9.198  0.4005E-29  0.2000E+02
  -9.188  0.1197E-29  0.2000E+02
  -9.178  0.3540E-30  0.2000E+02
  -9.168  0.1036E-30  0.2000E+02
  -9.158  0.2997E-31  0.2000E+02
  -9.148  0.8585E-32  0.2000E+02
  -9.138  0.2432E-32  0.2000E+02
  -9.128  0.6819E-33  0.2000E+02
  -9.118  0.1891E-33  0.2000E+02
  -9.108  0.5191E-34  0.2000E+02
  -9.098  0.1409E-34  0.2000E+02
  -9.088  0.3786E-35  0.2000E+02
  -9.078  0.1006E-35  0.2000E+02
  -9.068  0.2646E-36  0.2000E+02
  -9.058  0.6884E-37  0.2000E+02
  -9.048  0.1772E-37  0.2000E+02
  -9.038  0.4512E-38  0.2000E+02
  -9.028  0.1137E-38  0.2000E+02
  -9.018  0.2834E-39  0.2000E+02
  -9.008  0.6989E-40  0.2000E+02
  -8.998  0.1705E-40  0.2000E+02
  -8.988  0.4117E-41  0.2000E+02
  -8.978  0.9833E-42  0.2000E+02
  -8.968  0.2324E-42  0.2000E+02
  -8.958  0.5432E-43  0.2000E+02
  -8.948  0.1256E-43  0.2000E+02
  -8.938  0.2875E-44  0.2000E+02
  -8.928  0.6509E-45  0.2000E+02
  -8.918  0.1458E-45  0.2000E+02
  -8.908  0.3231E-46  0.2000E+02
  -8.898  0.7084E-47  0.2000E+02
  -8.888  0.1537E-47  0.2000E+02
  -8.878  0.3298E-48  0.2000E+02
  -8.868  0.7001E-49  0.2000E+02
  -8.858  0.1471E-49  0.2000E+02
  -8.848  0.3056E-50  0.2000E+02
  -8.838  0.6284E-51  0.2000E+02
  -8.828  0.1278E-51  0.2000E+02
  -8.818  0.2572E-52  0.2000E+02
  -8.808  0.5121E-53  0.2000E+02
  -8.798  0.1009E-53  0.2000E+02
  -8.788  0.1966E-54  0.2000E+02
  -8.778  0.3790E-55  0.2000E+02
  -8.768  0.7229E-56  0.2000E+02
  -8.758  0.1364E-56  0.2000E+02
  -8.748  0.2547E-57  0.2000E+02
  -8.738  0.4704E-58  0.2000E+02
  -8.728  0.8596E-59  0.2000E+02
  -8.718  0.1554E-59  0.2000E+02
  -8.708  0.2780E-60  0.2000E+02
  -8.698  0.4918E-61  0.2000E+02
  -8.688  0.8610E-62  0.2000E+02
  -8.678  0.1491E-62  0.2000E+02
  -8.668  0.2555E-63  0.2000E+02
  -8.658  0.4331E-64  0.2000E+02
  -8.648  0.7264E-65  0.2000E+02
  -8.638  0.1205E-65  0.2000E+02
  -8.628  0.1978E-66  0.2000E+02
  -8.618  0.3213E-67  0.2000E+02
  -8.608  0.5162E-68  0.2000E+02
  -8.598  0.8205E-69  0.2000E+02
  -8.588  0.1290E-69  0.2000E+02
  -8.578  0.2007E-70  0.2000E+02
  -8.568  0.3089E-71  0.2000E+02
  -8.558  0.4704E-72  0.2000E+02
  -8.548  0.7086E-73  0.2000E+02
  -8.538  0.1056E-73  0.2000E+02
  -8.528  0.1557E-74  0.2000E+02
  -8.518  0.2271E-75  0.2000E+02
  -8.508  0.3278E-76  0.2000E+02
  -8.498  0.4680E-77  0.2000E+02
  -8.488  0.6610E-78  0.2000E+02
  -8.478  0.9236E-79  0.2000E+02
  -8.468  0.1277E-79  0.2000E+02
  -8.458  0.1746E-80  0.2000E+02
  -8.448  0.2365E-81  0.2000E+02
  -8.438  0.3190E-82  0.2000E+02
  -8.428  0.4461E-83  0.2000E+02
  -8.418  0.8225E-84  0.2000E+02
  -8.408  0.3453E-84  0.2000E+02
  -8.398  0.2839E-84  0.2000E+02
  -8.388  0.2762E-84  0.2000E+02
  -8.378  0.2755E-84  0.2000E+02
  -8.368  0.2755E-84  0.2000E+02
  -8.358  0.2755E-84  0.2000E+02
  -8.348  0.2755E-84  0.2000E+02
  -8.338  0.2755E-84  0.2000E+02
  -8.328  0.2755E-84  0.2000E+02
  -8.318  0.2755E-84  0.2000E+02
  -8.308  0.2755E-84  0.2000E+02
  -8.298  0.2755E-84  0.2000E+02
  -8.288  0.2755E-84  0.2000E+02
  -8.278  0.2755E-84  0.2000E+02
  -8.268  0.2755E-84  0.2000E+02
  -8.258  0.2755E-84  0.2000E+02
  -8.248  0.2755E-84  0.2000E+02
  -8.238  0.2755E-84  0.2000E+02
  -8.228  0.2755E-84  0.2000E+02
  -8.218  0.2755E-84  0.2000E+02
  -8.208  0.2755E-84  0.2000E+02
  -8.198  0.2755E-84  0.2000E+02
  -8.188  0.2755E-84  0.2000E+02
  -8.178  0.2755E-84  0.2000E+02
  -8.168  0.2755E-84  0.2000E+02
  -8.158  0.2755E-84  0.2000E+02
  -8.148  0.2755E-84  0.2000E+02
  -8.138  0.2755E-84  0.2000E+02
  -8.128  0.2755E-84  0.2000E+02
  -8.118  0.2755E-84  0.2000E+02
  -8.108  0.2755E-84  0.2000E+02
  -8.098  0.2755E-84  0.2000E+02
  -8.088  0.2755E-84  0.2000E+02
  -8.078  0.2755E-84  0.2000E+02
  -8.068  0.2755E-84  0.2000E+02
  -8.058  0.2755E-84  0.2000E+02
  -8.048  0.2755E-84  0.2000E+02
  -8.038  0.2755E-84  0.2000E+02
  -8.028  0.2755E-84  0.2000E+02
  -8.018  0.2755E-84  0.2000E+02
  -8.008  0.2755E-84  0.2000E+02
  -7.998  0.2755E-84  0.2000E+02
  -7.988  0.2755E-84  0.2000E+02
  -7.978  0.2755E-84  0.2000E+02
  -7.968  0.2755E-84  0.2000E+02
  -7.958  0.2755E-84  0.2000E+02
  -7.948  0.2755E-84  0.2000E+02
  -7.938  0.2755E-84  0.2000E+02
  -7.928  0.2755E-84  0.2000E+02
  -7.918  0.2755E-84  0.2000E+02
  -7.908  0.2755E-84  0.2000E+02
  -7.898  0.2755E-84  0.2000E+02
  -7.888  0.2755E-84  0.2000E+02
  -7.878  0.2755E-84  0.2000E+02
  -7.868  0.2755E-84  0.2000E+02
  -7.858  0.2755E-84  0.2000E+02
  -7.848  0.2755E-84  0.2000E+02
  -7.838  0.2755E-84  0.2000E+02
  -7.828  0.2755E-84  0.2000E+02
  -7.818  0.2755E-84  0.2000E+02
  -7.808  0.2755E-84  0.2000E+02
  -7.798  0.2755E-84  0.2000E+02
  -7.788  0.2755E-84  0.2000E+02
  -7.778  0.2755E-84  0.2000E+02
  -7.768  0.2755E-84  0.2000E+02
  -7.758  0.2755E-84  0.2000E+02
  -7.748  0.2755E-84  0.2000E+02
  -7.738  0.2755E-84  0.2000E+02
  -7.728  0.2755E-84  0.2000E+02
  -7.718  0.2755E-84  0.2000E+02
  -7.708  0.2755E-84  0.2000E+02
  -7.698  0.2755E-84  0.2000E+02
  -7.688  0.2755E-84  0.2000E+02
  -7.678  0.2755E-84  0.2000E+02
  -7.668  0.2755E-84  0.2000E+02
  -7.658  0.2755E-84  0.2000E+02
  -7.648  0.2755E-84  0.2000E+02
  -7.638  0.2755E-84  0.2000E+02
  -7.628  0.2755E-84  0.2000E+02
  -7.618  0.2755E-84  0.2000E+02
  -7.608  0.2755E-84  0.2000E+02
  -7.598  0.2755E-84  0.2000E+02
  -7.588  0.2755E-84  0.2000E+02
  -7.578  0.2755E-84  0.2000E+02
  -7.568  0.2755E-84  0.2000E+02
  -7.558  0.2755E-84  0.2000E+02
  -7.548  0.2755E-84  0.2000E+02
  -7.538  0.2755E-84  0.2000E+02
  -7.528  0.2755E-84  0.2000E+02
  -7.518  0.2755E-84  0.2000E+02
  -7.508  0.2755E-84  0.2000E+02
  -7.498  0.2755E-84  0.2000E+02
  -7.488  0.2755E-84  0.2000E+02
  -7.478  0.2755E-84  0.2000E+02
  -7.468  0.2755E-84  0.2000E+02
  -7.458  0.2755E-84  0.2000E+02
  -7.448  0.2755E-84  0.2000E+02
  -7.438  0.2755E-84  0.2000E+02
  -7.428  0.2755E-84  0.2000E+02
  -7.418  0.2755E-84  0.2000E+02
  -7.408  0.2755E-84  0.2000E+02
  -7.398  0.2755E-84  0.2000E+02
  -7.388  0.2755E-84  0.2000E+02
  -7.378  0.2755E-84  0.2000E+02
  -7.368  0.2755E-84  0.2000E+02
  -7.358  0.2755E-84  0.2000E+02
  -7.348  0.2755E-84  0.2000E+02
  -7.338  0.2755E-84  0.2000E+02
  -7.328  0.2755E-84  0.2000E+02
  -7.318  0.2755E-84  0.2000E+02
  -7.308  0.2755E-84  0.2000E+02
  -7.298  0.2755E-84  0.2000E+02
  -7.288  0.2755E-84  0.2000E+02
  -7.278  0.2755E-84  0.2000E+02
  -7.268  0.2755E-84  0.2000E+02
  -7.258  0.2755E-84  0.2000E+02
  -7.248  0.2755E-84  0.2000E+02
  -7.238  0.2755E-84  0.2000E+02
  -7.228  0.2755E-84  0.2000E+02
  -7.218  0.2755E-84  0.2000E+02
  -7.208  0.2755E-84  0.2000E+02
  -7.198  0.2755E-84  0.2000E+02
  -7.188  0.2755E-84  0.2000E+02
  -7.178  0.2755E-84  0.2000E+02
  -7.168  0.2755E-84  0.2000E+02
  -7.158  0.2755E-84  0.2000E+02
  -7.148  0.2755E-84  0.2000E+02
  -7.138  0.2755E-84  0.2000E+02
  -7.128  0.2755E-84  0.2000E+02
  -7.118  0.2755E-84  0.2000E+02
  -7.108  0.2755E-84  0.2000E+02
  -7.098  0.2755E-84  0.2000E+02
  -7.088  0.2755E-84  0.2000E+02
  -7.078  0.2755E-84  0.2000E+02
  -7.068  0.2755E-84  0.2000E+02
  -7.058  0.2755E-84  0.2000E+02
  -7.048  0.2755E-84  0.2000E+02
  -7.038  0.2755E-84  0.2000E+02
  -7.028  0.2755E-84  0.2000E+02
  -7.018  0.2755E-84  0.2000E+02
  -7.008  0.2755E-84  0.2000E+02
  -6.998  0.2755E-84  0.2000E+02
  -6.988  0.2755E-84  0.2000E+02
  -6.978  0.2755E-84  0.2000E+02
  -6.968  0.2755E-84  0.2000E+02
  -6.958  0.2755E-84  0.2000E+02
  -6.948  0.2755E-84  0.2000E+02
  -6.938  0.2755E-84  0.2000E+02
  -6.928  0.2755E-84  0.2000E+02
  -6.918  0.2755E-84  0.2000E+02
  -6.908  0.2755E-84  0.2000E+02
  -6.898  0.2755E-84  0.2000E+02
  -6.888  0.2755E-84  0.2000E+02
  -6.878  0.2755E-84  0.2000E+02
  -6.868  0.2755E-84  0.2000E+02
  -6.858  0.2755E-84  0.2000E+02
  -6.848  0.2755E-84  0.2000E+02
  -6.838  0.2755E-84  0.2000E+02
  -6.828  0.2755E-84  0.2000E+02
  -6.818  0.2755E-84  0.2000E+02
  -6.808  0.2755E-84  0.2000E+02
  -6.798  0.2755E-84  0.2000E+02
  -6.788  0.2755E-84  0.2000E+02
  -6.778  0.2755E-84  0.2000E+02
  -6.768  0.2755E-84  0.2000E+02
  -6.758  0.2755E-84  0.2000E+02
  -6.748  0.2755E-84  0.2000E+02
  -6.738  0.2755E-84  0.2000E+02
  -6.728  0.2755E-84  0.2000E+02
  -6.718  0.2755E-84  0.2000E+02
  -6.708  0.2755E-84  0.2000E+02
  -6.698  0.2755E-84  0.2000E+02
  -6.688  0.2755E-84  0.2000E+02
  -6.678  0.2755E-84  0.2000E+02
  -6.668  0.2755E-84  0.2000E+02
  -6.658  0.2755E-84  0.2000E+02
  -6.648  0.2755E-84  0.2000E+02
  -6.638  0.2755E-84  0.2000E+02
  -6.628  0.2755E-84  0.2000E+02
  -6.618  0.2755E-84  0.2000E+02
  -6.608  0.2755E-84  0.2000E+02
  -6.598  0.2755E-84  0.2000E+02
  -6.588  0.2755E-84  0.2000E+02
  -6.578  0.2755E-84  0.2000E+02
  -6.568  0.2755E-84  0.2000E+02
  -6.558  0.2755E-84  0.2000E+02
  -6.548  0.2755E-84  0.2000E+02
  -6.538  0.2755E-84  0.2000E+02
  -6.528  0.2755E-84  0.2000E+02
  -6.518  0.2755E-84  0.2000E+02
  -6.508  0.2755E-84  0.2000E+02
  -6.498  0.2755E-84  0.2000E+02
  -6.488  0.2755E-84  0.2000E+02
  -6.478  0.2755E-84  0.2000E+02
  -6.468  0.2755E-84  0.2000E+02
  -6.458  0.2755E-84  0.2000E+02
  -6.448  0.2755E-84  0.2000E+02
  -6.438  0.2755E-84  0.2000E+02
  -6.428  0.2755E-84  0.2000E+02
  -6.418  0.2755E-84  0.2000E+02
  -6.408  0.2755E-84  0.2000E+02
  -6.398  0.2755E-84  0.2000E+02
  -6.388  0.2755E-84  0.2000E+02
  -6.378  0.2755E-84  0.2000E+02
  -6.368  0.2755E-84  0.2000E+02
  -6.358  0.2755E-84  0.2000E+02
  -6.348  0.2755E-84  0.2000E+02
  -6.338  0.2755E-84  0.2000E+02
  -6.328  0.2755E-84  0.2000E+02
  -6.318  0.2755E-84  0.2000E+02
  -6.308  0.2755E-84  0.2000E+02
  -6.298  0.2755E-84  0.2000E+02
  -6.288  0.2755E-84  0.2000E+02
  -6.278  0.2755E-84  0.2000E+02
  -6.268  0.2755E-84  0.2000E+02
  -6.258  0.2755E-84  0.2000E+02
  -6.248  0.2755E-84  0.2000E+02
  -6.238  0.2755E-84  0.2000E+02
  -6.228  0.2755E-84  0.2000E+02
  -6.218  0.2755E-84  0.2000E+02
  -6.208  0.2755E-84  0.2000E+02
  -6.198  0.2755E-84  0.2000E+02
  -6.188  0.2755E-84  0.2000E+02
  -6.178  0.2755E-84  0.2000E+02
  -6.168  0.2755E-84  0.2000E+02
  -6.158  0.2755E-84  0.2000E+02
  -6.148  0.2755E-84  0.2000E+02
  -6.138  0.2755E-84  0.2000E+02
  -6.128  0.2755E-84  0.2000E+02
  -6.118  0.2755E-84  0.2000E+02
  -6.108  0.2755E-84  0.2000E+02
  -6.098  0.2755E-84  0.2000E+02
  -6.088  0.2755E-84  0.2000E+02
  -6.078  0.2755E-84  0.2000E+02
  -6.068  0.2755E-84  0.2000E+02
  -6.058  0.2755E-84  0.2000E+02
  -6.048  0.2755E-84  0.2000E+02
  -6.038  0.2755E-84  0.2000E+02
  -6.028  0.2755E-84  0.2000E+02
  -6.018  0.2755E-84  0.2000E+02
  -6.008  0.2755E-84  0.2000E+02
  -5.998  0.2755E-84  0.2000E+02
  -5.988  0.2755E-84  0.2000E+02
  -5.978  0.2755E-84  0.2000E+02
  -5.968  0.2755E-84  0.2000E+02
  -5.958  0.2755E-84  0.2000E+02
  -5.948  0.2755E-84  0.2000E+02
  -5.938  0.2755E-84  0.2000E+02
  -5.928  0.2755E-84  0.2000E+02
  -5.918  0.2755E-84  0.2000E+02
  -5.908  0.2755E-84  0.2000E+02
  -5.898  0.2755E-84  0.2000E+02
  -5.888  0.2755E-84  0.2000E+02
  -5.878  0.2755E-84  0.2000E+02
  -5.868  0.2755E-84  0.2000E+02
  -5.858  0.2755E-84  0.2000E+02
  -5.848  0.2755E-84  0.2000E+02
  -5.838  0.2755E-84  0.2000E+02
  -5.828  0.2755E-84  0.2000E+02
  -5.818  0.2755E-84  0.2000E+02
  -5.808  0.2755E-84  0.2000E+02
  -5.798  0.2755E-84  0.2000E+02
  -5.788  0.2755E-84  0.2000E+02
  -5.778  0.2755E-84  0.2000E+02
  -5.768  0.2755E-84  0.2000E+02
  -5.758  0.2755E-84  0.2000E+02
  -5.748  0.2755E-84  0.2000E+02
  -5.738  0.2755E-84  0.2000E+02
  -5.728  0.2755E-84  0.2000E+02
  -5.718  0.2755E-84  0.2000E+02
  -5.708  0.2755E-84  0.2000E+02
  -5.698  0.2755E-84  0.2000E+02
  -5.688  0.2755E-84  0.2000E+02
  -5.678  0.2755E-84  0.2000E+02
  -5.668  0.2755E-84  0.2000E+02
  -5.658  0.2755E-84  0.2000E+02
  -5.648  0.2755E-84  0.2000E+02
  -5.638  0.2755E-84  0.2000E+02
  -5.628  0.2755E-84  0.2000E+02
  -5.618  0.2755E-84  0.2000E+02
  -5.608  0.2755E-84  0.2000E+02
  -5.598  0.2755E-84  0.2000E+02
  -5.588  0.2755E-84  0.2000E+02
  -5.578  0.2755E-84  0.2000E+02
  -5.568  0.2755E-84  0.2000E+02
  -5.558  0.2755E-84  0.2000E+02
  -5.548  0.2755E-84  0.2000E+02
  -5.538  0.2755E-84  0.2000E+02
  -5.528  0.2755E-84  0.2000E+02
  -5.518  0.2755E-84  0.2000E+02
  -5.508  0.2755E-84  0.2000E+02
  -5.498  0.2755E-84  0.2000E+02
  -5.488  0.2755E-84  0.2000E+02
  -5.478  0.2755E-84  0.2000E+02
  -5.468  0.2755E-84  0.2000E+02
  -5.458  0.2755E-84  0.2000E+02
  -5.448  0.2755E-84  0.2000E+02
  -5.438  0.2755E-84  0.2000E+02
  -5.428  0.2755E-84  0.2000E+02
  -5.418  0.2755E-84  0.2000E+02
  -5.408  0.2755E-84  0.2000E+02
  -5.398  0.2755E-84  0.2000E+02
  -5.388  0.2755E-84  0.2000E+02
  -5.378  0.2755E-84  0.2000E+02
  -5.368  0.2755E-84  0.2000E+02
  -5.358  0.2755E-84  0.2000E+02
  -5.348  0.2755E-84  0.2000E+02
  -5.338  0.2755E-84  0.2000E+02
  -5.328  0.2755E-84  0.2000E+02
  -5.318  0.2755E-84  0.2000E+02
  -5.308  0.2755E-84  0.2000E+02
  -5.298  0.2755E-84  0.2000E+02
  -5.288  0.2755E-84  0.2000E+02
  -5.278  0.2755E-84  0.2000E+02
  -5.268  0.2755E-84  0.2000E+02
  -5.258  0.2755E-84  0.2000E+02
  -5.248  0.2755E-84  0.2000E+02
  -5.238  0.2755E-84  0.2000E+02
  -5.228  0.2755E-84  0.2000E+02
  -5.218  0.2755E-84  0.2000E+02
  -5.208  0.2755E-84  0.2000E+02
  -5.198  0.2755E-84  0.2000E+02
  -5.188  0.2755E-84  0.2000E+02
  -5.178  0.2755E-84  0.2000E+02
