114.351 0.000
115.744 361.578
117.136 0.340
118.527 193.062
119.919 618.133
121.310 544.145
122.701 269.656
124.092 337.836
125.482 253.930
126.873 346.621
128.263 11.777
129.653 292.152
131.042 423.477
132.432 768.523
133.821 641.248
135.210 836.969
136.599 879.941
137.987 1086.840
139.376 1400.941
140.764 1539.553
142.152 1491.873
143.539 1490.441
144.927 1489.717
146.314 1097.551
147.701 993.494
149.088 978.982
150.474 898.057
151.861 750.590
153.247 992.779
154.633 692.262
156.018 767.980
157.404 461.285
158.789 90.260
160.174 118.057
161.559 363.533
162.943 493.971
164.327 254.742
165.711 141.607
167.095 246.189
168.479 238.941
169.862 215.064
171.246 370.887
172.628 291.898
174.011 388.131
175.394 415.383
176.776 412.182
178.158 441.354
179.540 378.314
180.922 337.484
182.303 291.971
183.684 341.141
185.065 365.057
186.446 477.098
187.826 486.098
189.207 395.484
190.587 450.283
191.967 325.988
193.346 317.836
194.726 425.010
196.105 358.543
197.484 389.270
198.862 396.484
200.241 350.018
201.619 232.723
202.997 314.191
204.375 252.107
205.753 281.924
207.130 28.086
208.507 197.896
209.884 216.740
211.261 47.191
212.638 202.721
214.014 222.998
215.390 6.633
216.766 127.041
218.141 23.473
219.517 54.512
220.892 13.709
222.267 30.410
223.642 44.729
225.016 40.463
226.391 37.078
227.765 15.529
229.139 27.328
230.512 61.480
231.886 28.992
233.259 107.398
234.632 74.496
236.005 19.957
237.377 35.789
238.749 36.234
240.122 33.135
241.493 94.973
242.865 65.506
244.237 14.684
245.608 22.912
246.979 69.602
248.350 133.805
249.720 141.973
251.090 16.625
252.461 129.965
253.830 37.127
255.200 3.934
256.570 5.777
257.939 -11.453
259.308 33.783
260.677 21.725
262.045 41.723
263.414 54.023
264.782 64.294
266.150 49.893
267.517 85.777
268.885 57.443
270.252 38.100
271.619 148.543
272.986 129.492
274.353 139.627
275.719 191.539
277.085 115.615
278.451 139.295
279.817 221.926
281.182 286.258
282.548 362.041
283.913 504.398
285.278 604.108
286.642 648.656
288.007 678.295
289.371 705.349
290.735 759.085
292.099 880.670
293.462 1034.918
294.826 1101.021
296.189 1235.389
297.552 1328.635
298.914 1418.891
300.277 1457.719
301.639 1484.062
303.001 1549.029
304.363 1492.859
305.724 1495.009
307.086 1274.664
308.447 1412.176
309.808 1337.776
311.168 1299.555
312.529 1409.425
313.889 1347.253
315.249 1263.169
316.609 1137.021
317.969 1230.527
319.328 1201.526
320.687 1161.196
322.046 1077.937
323.405 1199.401
324.764 1060.217
326.122 1142.675
327.480 1054.995
328.838 1202.515
330.196 1117.127
331.553 1222.042
332.910 1105.860
334.267 1117.963
335.624 1081.127
336.981 1072.273
338.337 1063.900
339.693 1004.981
341.049 1055.333
342.405 935.274
343.760 914.044
345.116 961.721
346.471 977.965
347.826 794.306
349.180 990.334
350.535 916.823
351.889 902.891
353.243 1017.670
354.597 892.502
355.950 1085.785
357.304 798.592
358.657 872.011
360.010 924.511
361.362 836.923
362.715 979.068
364.067 870.515
365.419 830.366
366.771 960.896
368.123 850.440
369.474 970.102
370.825 894.839
372.176 952.960
373.527 965.523
374.877 846.037
376.228 935.964
377.578 854.466
378.928 787.215
380.277 762.966
381.627 733.526
382.976 731.988
384.325 764.487
385.674 687.568
387.023 776.204
388.371 694.971
389.719 613.972
391.067 705.825
392.415 787.881
393.762 685.466
395.110 607.345
396.457 810.767
397.804 643.485
399.150 653.279
400.497 584.972
401.843 556.723
403.189 627.729
404.535 680.214
405.881 671.931
407.226 742.167
408.571 745.206
409.916 654.128
411.261 726.147
412.605 728.175
413.950 638.846
415.294 720.436
416.638 678.727
417.981 718.758
419.325 758.342
420.668 789.536
422.011 809.852
423.354 800.152
424.697 727.900
426.039 758.503
427.381 739.475
428.723 831.066
430.065 742.021
431.406 872.557
432.748 1082.671
434.089 1293.350
435.430 1274.262
436.770 1454.948
438.111 1465.771
439.451 1255.224
440.791 1156.922
442.131 837.750
443.471 768.589
444.810 779.430
446.149 750.016
447.488 781.050
448.827 801.325
450.166 791.056
451.504 730.866
452.842 770.292
454.180 699.751
455.518 729.805
456.855 729.809
458.193 739.527
459.530 749.587
460.867 729.108
462.203 758.963
463.540 718.355
464.876 767.918
466.212 736.729
467.548 745.169
468.883 762.431
470.219 764.426
471.554 857.007
472.889 794.095
474.224 861.403
475.558 868.389
476.892 864.349
478.227 850.112
479.561 825.891
480.894 951.396
482.228 886.748
483.561 921.492
484.894 996.392
486.227 840.649
487.559 854.932
488.892 978.648
490.224 992.984
491.556 1066.562
492.888 1030.551
494.220 1055.664
495.551 1047.456
496.882 1020.790
498.213 1084.173
499.544 1007.465
500.874 1100.626
502.205 1133.487
503.535 1225.757
504.865 1287.686
506.194 1279.735
507.524 1421.824
508.853 1653.042
510.182 2004.915
511.511 2396.614
512.840 3128.351
514.168 4350.667
515.496 6622.228
516.824 10464.579
518.152 14985.587
519.480 18716.758
520.807 20608.264
522.134 19279.262
523.461 16070.838
524.788 12601.825
526.114 9272.856
527.441 6784.594
528.767 4815.492
530.093 4296.682
531.418 2997.924
532.744 2149.585
534.069 1661.181
535.394 1362.305
536.719 1123.747
538.044 1015.918
539.368 907.073
540.693 758.306
542.017 720.343
543.340 701.379
544.664 542.893
545.987 613.528
547.311 654.693
548.634 519.020
549.956 589.692
551.279 580.705
552.601 382.101
553.923 502.893
555.245 406.596
556.567 421.190
557.889 365.127
559.210 426.786
560.531 384.294
561.852 529.575
563.173 341.693
564.493 392.334
565.813 543.183
567.133 346.903
568.453 450.202
569.773 335.706
571.092 356.752
572.412 259.234
573.731 360.957
575.049 236.047
576.368 292.157
577.686 313.112
579.005 294.273
580.323 245.512
581.640 189.402
582.958 251.941
584.275 163.008
585.593 245.484
586.909 257.020
588.226 89.462
589.543 100.450
590.859 121.935
592.175 204.414
593.491 87.228
594.807 140.287
596.122 192.871
597.438 65.568
598.753 128.093
600.068 80.678
