#  E (eV)   dos(E)     Int dos(E) EFermi =   2.573 eV
 -16.772  0.0000E+00  0.0000E+00
 -16.762  0.2417E-01  0.2417E-03
 -16.752  0.9669E-01  0.1209E-02
 -16.742  0.2176E+00  0.3384E-02
 -16.732  0.3868E+00  0.7252E-02
 -16.722  0.5922E+00  0.1317E-01
 -16.712  0.8202E+00  0.2138E-01
 -16.702  0.9018E+00  0.3039E-01
 -16.692  0.9485E+00  0.3988E-01
 -16.682  0.9659E+00  0.4954E-01
 -16.672  0.9644E+00  0.5918E-01
 -16.662  0.1044E+01  0.6962E-01
 -16.652  0.1125E+01  0.8087E-01
 -16.642  0.1208E+01  0.9295E-01
 -16.632  0.1294E+01  0.1059E+00
 -16.622  0.1381E+01  0.1197E+00
 -16.612  0.1471E+01  0.1344E+00
 -16.602  0.1558E+01  0.1500E+00
 -16.592  0.1638E+01  0.1664E+00
 -16.582  0.1705E+01  0.1834E+00
 -16.572  0.1758E+01  0.2010E+00
 -16.562  0.1795E+01  0.2190E+00
 -16.552  0.1861E+01  0.2376E+00
 -16.542  0.1919E+01  0.2568E+00
 -16.532  0.1979E+01  0.2766E+00
 -16.522  0.2046E+01  0.2970E+00
 -16.512  0.2119E+01  0.3182E+00
 -16.502  0.2196E+01  0.3402E+00
 -16.492  0.2275E+01  0.3629E+00
 -16.482  0.2355E+01  0.3865E+00
 -16.472  0.2437E+01  0.4108E+00
 -16.462  0.2520E+01  0.4360E+00
 -16.452  0.2609E+01  0.4621E+00
 -16.442  0.2708E+01  0.4892E+00
 -16.432  0.2817E+01  0.5174E+00
 -16.422  0.2945E+01  0.5468E+00
 -16.412  0.3249E+01  0.5793E+00
 -16.402  0.3539E+01  0.6147E+00
 -16.392  0.3812E+01  0.6528E+00
 -16.382  0.4077E+01  0.6936E+00
 -16.372  0.3979E+01  0.7334E+00
 -16.362  0.4156E+01  0.7749E+00
 -16.352  0.4346E+01  0.8184E+00
 -16.342  0.4548E+01  0.8639E+00
 -16.332  0.4762E+01  0.9115E+00
 -16.322  0.5295E+01  0.9644E+00
 -16.312  0.5777E+01  0.1022E+01
 -16.302  0.6222E+01  0.1084E+01
 -16.292  0.6632E+01  0.1151E+01
 -16.282  0.6967E+01  0.1220E+01
 -16.272  0.7216E+01  0.1293E+01
 -16.262  0.7453E+01  0.1367E+01
 -16.252  0.7617E+01  0.1443E+01
 -16.242  0.7615E+01  0.1519E+01
 -16.232  0.7587E+01  0.1595E+01
 -16.222  0.1008E+02  0.1696E+01
 -16.212  0.8786E+01  0.1784E+01
 -16.202  0.7023E+01  0.1854E+01
 -16.192  0.8419E+01  0.1938E+01
 -16.182  0.4306E+01  0.1981E+01
 -16.172  0.0000E+00  0.1981E+01
 -16.162  0.2561E+00  0.1984E+01
 -16.152  0.5670E+00  0.1990E+01
 -16.142  0.9016E+00  0.1999E+01
 -16.132  0.5906E+00  0.2005E+01
 -16.122  0.6437E+00  0.2011E+01
 -16.112  0.6988E+00  0.2018E+01
 -16.102  0.7560E+00  0.2026E+01
 -16.092  0.8152E+00  0.2034E+01
 -16.082  0.8765E+00  0.2043E+01
 -16.072  0.9398E+00  0.2052E+01
 -16.062  0.1005E+01  0.2062E+01
 -16.052  0.1043E+01  0.2072E+01
 -16.042  0.1063E+01  0.2083E+01
 -16.032  0.1085E+01  0.2094E+01
 -16.022  0.1109E+01  0.2105E+01
 -16.012  0.1147E+01  0.2116E+01
 -16.002  0.1210E+01  0.2129E+01
 -15.992  0.1275E+01  0.2141E+01
 -15.982  0.1343E+01  0.2155E+01
 -15.972  0.1414E+01  0.2169E+01
 -15.962  0.1487E+01  0.2184E+01
 -15.952  0.1562E+01  0.2199E+01
 -15.942  0.1640E+01  0.2216E+01
 -15.932  0.1720E+01  0.2233E+01
 -15.922  0.1803E+01  0.2251E+01
 -15.912  0.1888E+01  0.2270E+01
 -15.902  0.1975E+01  0.2290E+01
 -15.892  0.2464E+01  0.2314E+01
 -15.882  0.3075E+01  0.2345E+01
 -15.872  0.3730E+01  0.2382E+01
 -15.862  0.4385E+01  0.2426E+01
 -15.852  0.4600E+01  0.2472E+01
 -15.842  0.5036E+01  0.2522E+01
 -15.832  0.5613E+01  0.2579E+01
 -15.822  0.6595E+01  0.2645E+01
 -15.812  0.8496E+01  0.2730E+01
 -15.802  0.1049E+02  0.2834E+01
 -15.792  0.1209E+02  0.2955E+01
 -15.782  0.1226E+02  0.3078E+01
 -15.772  0.1071E+02  0.3185E+01
 -15.762  0.8909E+01  0.3274E+01
 -15.752  0.7198E+01  0.3346E+01
 -15.742  0.5673E+01  0.3403E+01
 -15.732  0.5028E+01  0.3453E+01
 -15.722  0.4621E+01  0.3499E+01
 -15.712  0.4250E+01  0.3542E+01
 -15.702  0.2717E+01  0.3569E+01
 -15.692  0.2572E+01  0.3595E+01
 -15.682  0.2444E+01  0.3619E+01
 -15.672  0.2327E+01  0.3642E+01
 -15.662  0.2202E+01  0.3664E+01
 -15.652  0.2064E+01  0.3685E+01
 -15.642  0.1932E+01  0.3704E+01
 -15.632  0.1806E+01  0.3722E+01
 -15.622  0.1686E+01  0.3739E+01
 -15.612  0.1577E+01  0.3755E+01
 -15.602  0.1485E+01  0.3770E+01
 -15.592  0.1435E+01  0.3784E+01
 -15.582  0.1412E+01  0.3798E+01
 -15.572  0.1376E+01  0.3812E+01
 -15.562  0.1327E+01  0.3825E+01
 -15.552  0.1258E+01  0.3838E+01
 -15.542  0.1172E+01  0.3850E+01
 -15.532  0.1091E+01  0.3861E+01
 -15.522  0.1014E+01  0.3871E+01
 -15.512  0.9411E+00  0.3880E+01
 -15.502  0.8722E+00  0.3889E+01
 -15.492  0.8075E+00  0.3897E+01
 -15.482  0.7473E+00  0.3904E+01
 -15.472  0.6915E+00  0.3911E+01
 -15.462  0.6401E+00  0.3918E+01
 -15.452  0.5932E+00  0.3924E+01
 -15.442  0.5507E+00  0.3929E+01
 -15.432  0.5125E+00  0.3934E+01
 -15.422  0.4764E+00  0.3939E+01
 -15.412  0.4413E+00  0.3943E+01
 -15.402  0.4072E+00  0.3948E+01
 -15.392  0.3742E+00  0.3951E+01
 -15.382  0.1443E+01  0.3966E+01
 -15.372  0.1473E+01  0.3980E+01
 -15.362  0.1465E+01  0.3995E+01
 -15.352  0.1419E+01  0.4009E+01
 -15.342  0.1455E+01  0.4024E+01
 -15.332  0.1630E+01  0.4040E+01
 -15.322  0.1841E+01  0.4059E+01
 -15.312  0.2086E+01  0.4079E+01
 -15.302  0.2383E+01  0.4103E+01
 -15.292  0.2710E+01  0.4130E+01
 -15.282  0.3111E+01  0.4161E+01
 -15.272  0.3626E+01  0.4198E+01
 -15.262  0.4271E+01  0.4240E+01
 -15.252  0.5046E+01  0.4291E+01
 -15.242  0.5441E+01  0.4345E+01
 -15.232  0.6226E+01  0.4408E+01
 -15.222  0.8350E+01  0.4491E+01
 -15.212  0.1181E+02  0.4609E+01
 -15.202  0.1816E+02  0.4791E+01
 -15.192  0.1523E+02  0.4943E+01
 -15.182  0.7626E+01  0.5019E+01
 -15.172  0.6236E+01  0.5082E+01
 -15.162  0.5388E+01  0.5136E+01
 -15.152  0.4716E+01  0.5183E+01
 -15.142  0.4213E+01  0.5225E+01
 -15.132  0.3830E+01  0.5263E+01
 -15.122  0.3502E+01  0.5298E+01
 -15.112  0.3222E+01  0.5330E+01
 -15.102  0.2995E+01  0.5360E+01
 -15.092  0.2837E+01  0.5389E+01
 -15.082  0.2722E+01  0.5416E+01
 -15.072  0.2611E+01  0.5442E+01
 -15.062  0.2504E+01  0.5467E+01
 -15.052  0.2400E+01  0.5491E+01
 -15.042  0.2300E+01  0.5514E+01
 -15.032  0.2204E+01  0.5536E+01
 -15.022  0.2112E+01  0.5557E+01
 -15.012  0.2023E+01  0.5578E+01
 -15.002  0.1938E+01  0.5597E+01
 -14.992  0.1850E+01  0.5615E+01
 -14.982  0.1769E+01  0.5633E+01
 -14.972  0.1696E+01  0.5650E+01
 -14.962  0.1634E+01  0.5666E+01
 -14.952  0.1581E+01  0.5682E+01
 -14.942  0.1534E+01  0.5698E+01
 -14.932  0.1486E+01  0.5712E+01
 -14.922  0.1439E+01  0.5727E+01
 -14.912  0.1392E+01  0.5741E+01
 -14.902  0.1345E+01  0.5754E+01
 -14.892  0.1298E+01  0.5767E+01
 -14.882  0.1251E+01  0.5780E+01
 -14.872  0.1204E+01  0.5792E+01
 -14.862  0.1155E+01  0.5803E+01
 -14.852  0.1106E+01  0.5814E+01
 -14.842  0.1058E+01  0.5825E+01
 -14.832  0.1012E+01  0.5835E+01
 -14.822  0.9662E+00  0.5845E+01
 -14.812  0.9215E+00  0.5854E+01
 -14.802  0.8852E+00  0.5863E+01
 -14.792  0.8652E+00  0.5871E+01
 -14.782  0.8418E+00  0.5880E+01
 -14.772  0.8147E+00  0.5888E+01
 -14.762  0.7839E+00  0.5896E+01
 -14.752  0.7494E+00  0.5903E+01
 -14.742  0.7111E+00  0.5910E+01
 -14.732  0.6691E+00  0.5917E+01
 -14.722  0.6237E+00  0.5923E+01
 -14.712  0.5772E+00  0.5929E+01
 -14.702  0.5299E+00  0.5934E+01
 -14.692  0.6655E+00  0.5941E+01
 -14.682  0.5565E+00  0.5947E+01
 -14.672  0.4557E+00  0.5951E+01
 -14.662  0.1991E+02  0.6150E+01
 -14.652  0.2704E+02  0.6421E+01
 -14.642  0.1095E+03  0.7515E+01
 -14.632  0.3031E+02  0.7819E+01
 -14.622  0.2983E+02  0.8117E+01
 -14.612  0.5762E+02  0.8693E+01
 -14.602  0.6752E+02  0.9368E+01
 -14.592  0.5004E+02  0.9869E+01
 -14.582  0.4763E+02  0.1034E+02
 -14.572  0.1014E+03  0.1136E+02
 -14.562  0.4737E+02  0.1183E+02
 -14.552  0.2875E+02  0.1212E+02
 -14.542  0.1810E+02  0.1230E+02
 -14.532  0.9119E+01  0.1239E+02
 -14.522  0.1985E+01  0.1241E+02
 -14.512  0.0000E+00  0.1241E+02
 -14.502  0.0000E+00  0.1241E+02
 -14.492  0.0000E+00  0.1241E+02
 -14.482  0.0000E+00  0.1241E+02
 -14.472  0.0000E+00  0.1241E+02
 -14.462  0.0000E+00  0.1241E+02
 -14.452  0.0000E+00  0.1241E+02
 -14.442  0.0000E+00  0.1241E+02
 -14.432  0.0000E+00  0.1241E+02
 -14.422  0.0000E+00  0.1241E+02
 -14.412  0.0000E+00  0.1241E+02
 -14.402  0.0000E+00  0.1241E+02
 -14.392  0.0000E+00  0.1241E+02
 -14.382  0.0000E+00  0.1241E+02
 -14.372  0.0000E+00  0.1241E+02
 -14.362  0.0000E+00  0.1241E+02
 -14.352  0.0000E+00  0.1241E+02
 -14.342  0.0000E+00  0.1241E+02
 -14.332  0.0000E+00  0.1241E+02
 -14.322  0.0000E+00  0.1241E+02
 -14.312  0.0000E+00  0.1241E+02
 -14.302  0.0000E+00  0.1241E+02
 -14.292  0.0000E+00  0.1241E+02
 -14.282  0.0000E+00  0.1241E+02
 -14.272  0.0000E+00  0.1241E+02
 -14.262  0.0000E+00  0.1241E+02
 -14.252  0.0000E+00  0.1241E+02
 -14.242  0.0000E+00  0.1241E+02
 -14.232  0.0000E+00  0.1241E+02
 -14.222  0.0000E+00  0.1241E+02
 -14.212  0.0000E+00  0.1241E+02
 -14.202  0.0000E+00  0.1241E+02
 -14.192  0.0000E+00  0.1241E+02
 -14.182  0.0000E+00  0.1241E+02
 -14.172  0.0000E+00  0.1241E+02
 -14.162  0.0000E+00  0.1241E+02
 -14.152  0.0000E+00  0.1241E+02
 -14.142  0.0000E+00  0.1241E+02
 -14.132  0.0000E+00  0.1241E+02
 -14.122  0.0000E+00  0.1241E+02
 -14.112  0.0000E+00  0.1241E+02
 -14.102  0.0000E+00  0.1241E+02
 -14.092  0.0000E+00  0.1241E+02
 -14.082  0.0000E+00  0.1241E+02
 -14.072  0.0000E+00  0.1241E+02
 -14.062  0.0000E+00  0.1241E+02
 -14.052  0.0000E+00  0.1241E+02
 -14.042  0.0000E+00  0.1241E+02
 -14.032  0.0000E+00  0.1241E+02
 -14.022  0.0000E+00  0.1241E+02
 -14.012  0.0000E+00  0.1241E+02
 -14.002  0.0000E+00  0.1241E+02
 -13.992  0.0000E+00  0.1241E+02
 -13.982  0.0000E+00  0.1241E+02
 -13.972  0.0000E+00  0.1241E+02
 -13.962  0.0000E+00  0.1241E+02
 -13.952  0.0000E+00  0.1241E+02
 -13.942  0.0000E+00  0.1241E+02
 -13.932  0.0000E+00  0.1241E+02
 -13.922  0.0000E+00  0.1241E+02
 -13.912  0.0000E+00  0.1241E+02
 -13.902  0.0000E+00  0.1241E+02
 -13.892  0.0000E+00  0.1241E+02
 -13.882  0.0000E+00  0.1241E+02
 -13.872  0.0000E+00  0.1241E+02
 -13.862  0.0000E+00  0.1241E+02
 -13.852  0.0000E+00  0.1241E+02
 -13.842  0.0000E+00  0.1241E+02
 -13.832  0.0000E+00  0.1241E+02
 -13.822  0.0000E+00  0.1241E+02
 -13.812  0.0000E+00  0.1241E+02
 -13.802  0.0000E+00  0.1241E+02
 -13.792  0.0000E+00  0.1241E+02
 -13.782  0.0000E+00  0.1241E+02
 -13.772  0.0000E+00  0.1241E+02
 -13.762  0.0000E+00  0.1241E+02
 -13.752  0.0000E+00  0.1241E+02
 -13.742  0.0000E+00  0.1241E+02
 -13.732  0.0000E+00  0.1241E+02
 -13.722  0.0000E+00  0.1241E+02
 -13.712  0.0000E+00  0.1241E+02
 -13.702  0.0000E+00  0.1241E+02
 -13.692  0.0000E+00  0.1241E+02
 -13.682  0.0000E+00  0.1241E+02
 -13.672  0.0000E+00  0.1241E+02
 -13.662  0.0000E+00  0.1241E+02
 -13.652  0.0000E+00  0.1241E+02
 -13.642  0.0000E+00  0.1241E+02
 -13.632  0.0000E+00  0.1241E+02
 -13.622  0.0000E+00  0.1241E+02
 -13.612  0.0000E+00  0.1241E+02
 -13.602  0.0000E+00  0.1241E+02
 -13.592  0.0000E+00  0.1241E+02
 -13.582  0.0000E+00  0.1241E+02
 -13.572  0.0000E+00  0.1241E+02
 -13.562  0.0000E+00  0.1241E+02
 -13.552  0.0000E+00  0.1241E+02
 -13.542  0.0000E+00  0.1241E+02
 -13.532  0.0000E+00  0.1241E+02
 -13.522  0.0000E+00  0.1241E+02
 -13.512  0.0000E+00  0.1241E+02
 -13.502  0.0000E+00  0.1241E+02
 -13.492  0.0000E+00  0.1241E+02
 -13.482  0.0000E+00  0.1241E+02
 -13.472  0.0000E+00  0.1241E+02
 -13.462  0.0000E+00  0.1241E+02
 -13.452  0.0000E+00  0.1241E+02
 -13.442  0.0000E+00  0.1241E+02
 -13.432  0.0000E+00  0.1241E+02
 -13.422  0.0000E+00  0.1241E+02
 -13.412  0.0000E+00  0.1241E+02
 -13.402  0.0000E+00  0.1241E+02
 -13.392  0.0000E+00  0.1241E+02
 -13.382  0.0000E+00  0.1241E+02
 -13.372  0.0000E+00  0.1241E+02
 -13.362  0.0000E+00  0.1241E+02
 -13.352  0.0000E+00  0.1241E+02
 -13.342  0.0000E+00  0.1241E+02
 -13.332  0.0000E+00  0.1241E+02
 -13.322  0.0000E+00  0.1241E+02
 -13.312  0.0000E+00  0.1241E+02
 -13.302  0.0000E+00  0.1241E+02
 -13.292  0.0000E+00  0.1241E+02
 -13.282  0.0000E+00  0.1241E+02
 -13.272  0.0000E+00  0.1241E+02
 -13.262  0.0000E+00  0.1241E+02
 -13.252  0.0000E+00  0.1241E+02
 -13.242  0.0000E+00  0.1241E+02
 -13.232  0.0000E+00  0.1241E+02
 -13.222  0.0000E+00  0.1241E+02
 -13.212  0.0000E+00  0.1241E+02
 -13.202  0.0000E+00  0.1241E+02
 -13.192  0.0000E+00  0.1241E+02
 -13.182  0.0000E+00  0.1241E+02
 -13.172  0.0000E+00  0.1241E+02
 -13.162  0.0000E+00  0.1241E+02
 -13.152  0.0000E+00  0.1241E+02
 -13.142  0.0000E+00  0.1241E+02
 -13.132  0.0000E+00  0.1241E+02
 -13.122  0.0000E+00  0.1241E+02
 -13.112  0.0000E+00  0.1241E+02
 -13.102  0.0000E+00  0.1241E+02
 -13.092  0.0000E+00  0.1241E+02
 -13.082  0.0000E+00  0.1241E+02
 -13.072  0.0000E+00  0.1241E+02
 -13.062  0.0000E+00  0.1241E+02
 -13.052  0.0000E+00  0.1241E+02
 -13.042  0.0000E+00  0.1241E+02
 -13.032  0.0000E+00  0.1241E+02
 -13.022  0.0000E+00  0.1241E+02
 -13.012  0.0000E+00  0.1241E+02
 -13.002  0.0000E+00  0.1241E+02
 -12.992  0.0000E+00  0.1241E+02
 -12.982  0.0000E+00  0.1241E+02
 -12.972  0.0000E+00  0.1241E+02
 -12.962  0.0000E+00  0.1241E+02
 -12.952  0.0000E+00  0.1241E+02
 -12.942  0.0000E+00  0.1241E+02
 -12.932  0.0000E+00  0.1241E+02
 -12.922  0.0000E+00  0.1241E+02
 -12.912  0.0000E+00  0.1241E+02
 -12.902  0.0000E+00  0.1241E+02
 -12.892  0.0000E+00  0.1241E+02
 -12.882  0.0000E+00  0.1241E+02
 -12.872  0.0000E+00  0.1241E+02
 -12.862  0.0000E+00  0.1241E+02
 -12.852  0.0000E+00  0.1241E+02
 -12.842  0.0000E+00  0.1241E+02
 -12.832  0.0000E+00  0.1241E+02
 -12.822  0.0000E+00  0.1241E+02
 -12.812  0.0000E+00  0.1241E+02
 -12.802  0.0000E+00  0.1241E+02
 -12.792  0.0000E+00  0.1241E+02
 -12.782  0.0000E+00  0.1241E+02
 -12.772  0.0000E+00  0.1241E+02
 -12.762  0.0000E+00  0.1241E+02
 -12.752  0.0000E+00  0.1241E+02
 -12.742  0.0000E+00  0.1241E+02
 -12.732  0.0000E+00  0.1241E+02
 -12.722  0.0000E+00  0.1241E+02
 -12.712  0.0000E+00  0.1241E+02
 -12.702  0.0000E+00  0.1241E+02
 -12.692  0.0000E+00  0.1241E+02
 -12.682  0.0000E+00  0.1241E+02
 -12.672  0.0000E+00  0.1241E+02
 -12.662  0.0000E+00  0.1241E+02
 -12.652  0.0000E+00  0.1241E+02
 -12.642  0.0000E+00  0.1241E+02
 -12.632  0.0000E+00  0.1241E+02
 -12.622  0.0000E+00  0.1241E+02
 -12.612  0.0000E+00  0.1241E+02
 -12.602  0.0000E+00  0.1241E+02
 -12.592  0.0000E+00  0.1241E+02
 -12.582  0.0000E+00  0.1241E+02
 -12.572  0.0000E+00  0.1241E+02
 -12.562  0.0000E+00  0.1241E+02
 -12.552  0.0000E+00  0.1241E+02
 -12.542  0.0000E+00  0.1241E+02
 -12.532  0.0000E+00  0.1241E+02
 -12.522  0.0000E+00  0.1241E+02
 -12.512  0.0000E+00  0.1241E+02
 -12.502  0.0000E+00  0.1241E+02
 -12.492  0.0000E+00  0.1241E+02
 -12.482  0.0000E+00  0.1241E+02
 -12.472  0.0000E+00  0.1241E+02
 -12.462  0.0000E+00  0.1241E+02
 -12.452  0.0000E+00  0.1241E+02
 -12.442  0.0000E+00  0.1241E+02
 -12.432  0.0000E+00  0.1241E+02
 -12.422  0.0000E+00  0.1241E+02
 -12.412  0.0000E+00  0.1241E+02
 -12.402  0.0000E+00  0.1241E+02
 -12.392  0.0000E+00  0.1241E+02
 -12.382  0.0000E+00  0.1241E+02
 -12.372  0.0000E+00  0.1241E+02
 -12.362  0.0000E+00  0.1241E+02
 -12.352  0.0000E+00  0.1241E+02
 -12.342  0.0000E+00  0.1241E+02
 -12.332  0.0000E+00  0.1241E+02
 -12.322  0.0000E+00  0.1241E+02
 -12.312  0.0000E+00  0.1241E+02
 -12.302  0.0000E+00  0.1241E+02
 -12.292  0.0000E+00  0.1241E+02
 -12.282  0.0000E+00  0.1241E+02
 -12.272  0.0000E+00  0.1241E+02
 -12.262  0.0000E+00  0.1241E+02
 -12.252  0.0000E+00  0.1241E+02
 -12.242  0.0000E+00  0.1241E+02
 -12.232  0.0000E+00  0.1241E+02
 -12.222  0.0000E+00  0.1241E+02
 -12.212  0.0000E+00  0.1241E+02
 -12.202  0.0000E+00  0.1241E+02
 -12.192  0.0000E+00  0.1241E+02
 -12.182  0.0000E+00  0.1241E+02
 -12.172  0.0000E+00  0.1241E+02
 -12.162  0.0000E+00  0.1241E+02
 -12.152  0.0000E+00  0.1241E+02
 -12.142  0.0000E+00  0.1241E+02
 -12.132  0.0000E+00  0.1241E+02
 -12.122  0.0000E+00  0.1241E+02
 -12.112  0.0000E+00  0.1241E+02
 -12.102  0.0000E+00  0.1241E+02
 -12.092  0.0000E+00  0.1241E+02
 -12.082  0.0000E+00  0.1241E+02
 -12.072  0.0000E+00  0.1241E+02
 -12.062  0.0000E+00  0.1241E+02
 -12.052  0.0000E+00  0.1241E+02
 -12.042  0.0000E+00  0.1241E+02
 -12.032  0.0000E+00  0.1241E+02
 -12.022  0.0000E+00  0.1241E+02
 -12.012  0.0000E+00  0.1241E+02
 -12.002  0.0000E+00  0.1241E+02
 -11.992  0.0000E+00  0.1241E+02
 -11.982  0.0000E+00  0.1241E+02
 -11.972  0.0000E+00  0.1241E+02
 -11.962  0.0000E+00  0.1241E+02
 -11.952  0.0000E+00  0.1241E+02
 -11.942  0.0000E+00  0.1241E+02
 -11.932  0.0000E+00  0.1241E+02
 -11.922  0.0000E+00  0.1241E+02
 -11.912  0.0000E+00  0.1241E+02
 -11.902  0.0000E+00  0.1241E+02
 -11.892  0.0000E+00  0.1241E+02
 -11.882  0.0000E+00  0.1241E+02
 -11.872  0.0000E+00  0.1241E+02
 -11.862  0.0000E+00  0.1241E+02
 -11.852  0.0000E+00  0.1241E+02
 -11.842  0.0000E+00  0.1241E+02
 -11.832  0.0000E+00  0.1241E+02
 -11.822  0.0000E+00  0.1241E+02
 -11.812  0.0000E+00  0.1241E+02
 -11.802  0.0000E+00  0.1241E+02
 -11.792  0.0000E+00  0.1241E+02
 -11.782  0.0000E+00  0.1241E+02
 -11.772  0.0000E+00  0.1241E+02
 -11.762  0.0000E+00  0.1241E+02
 -11.752  0.0000E+00  0.1241E+02
 -11.742  0.0000E+00  0.1241E+02
 -11.732  0.0000E+00  0.1241E+02
 -11.722  0.0000E+00  0.1241E+02
 -11.712  0.0000E+00  0.1241E+02
 -11.702  0.0000E+00  0.1241E+02
 -11.692  0.0000E+00  0.1241E+02
 -11.682  0.0000E+00  0.1241E+02
 -11.672  0.0000E+00  0.1241E+02
 -11.662  0.0000E+00  0.1241E+02
 -11.652  0.0000E+00  0.1241E+02
 -11.642  0.0000E+00  0.1241E+02
 -11.632  0.0000E+00  0.1241E+02
 -11.622  0.0000E+00  0.1241E+02
 -11.612  0.0000E+00  0.1241E+02
 -11.602  0.0000E+00  0.1241E+02
 -11.592  0.0000E+00  0.1241E+02
 -11.582  0.0000E+00  0.1241E+02
 -11.572  0.0000E+00  0.1241E+02
 -11.562  0.0000E+00  0.1241E+02
 -11.552  0.0000E+00  0.1241E+02
 -11.542  0.0000E+00  0.1241E+02
 -11.532  0.0000E+00  0.1241E+02
 -11.522  0.0000E+00  0.1241E+02
 -11.512  0.0000E+00  0.1241E+02
 -11.502  0.0000E+00  0.1241E+02
 -11.492  0.0000E+00  0.1241E+02
 -11.482  0.0000E+00  0.1241E+02
 -11.472  0.0000E+00  0.1241E+02
 -11.462  0.0000E+00  0.1241E+02
 -11.452  0.0000E+00  0.1241E+02
 -11.442  0.0000E+00  0.1241E+02
 -11.432  0.0000E+00  0.1241E+02
 -11.422  0.0000E+00  0.1241E+02
 -11.412  0.0000E+00  0.1241E+02
 -11.402  0.0000E+00  0.1241E+02
 -11.392  0.0000E+00  0.1241E+02
 -11.382  0.0000E+00  0.1241E+02
 -11.372  0.0000E+00  0.1241E+02
 -11.362  0.0000E+00  0.1241E+02
 -11.352  0.0000E+00  0.1241E+02
 -11.342  0.0000E+00  0.1241E+02
 -11.332  0.0000E+00  0.1241E+02
 -11.322  0.0000E+00  0.1241E+02
 -11.312  0.0000E+00  0.1241E+02
 -11.302  0.0000E+00  0.1241E+02
 -11.292  0.0000E+00  0.1241E+02
 -11.282  0.0000E+00  0.1241E+02
 -11.272  0.0000E+00  0.1241E+02
 -11.262  0.0000E+00  0.1241E+02
 -11.252  0.0000E+00  0.1241E+02
 -11.242  0.0000E+00  0.1241E+02
 -11.232  0.0000E+00  0.1241E+02
 -11.222  0.0000E+00  0.1241E+02
 -11.212  0.0000E+00  0.1241E+02
 -11.202  0.0000E+00  0.1241E+02
 -11.192  0.0000E+00  0.1241E+02
 -11.182  0.0000E+00  0.1241E+02
 -11.172  0.0000E+00  0.1241E+02
 -11.162  0.0000E+00  0.1241E+02
 -11.152  0.0000E+00  0.1241E+02
 -11.142  0.0000E+00  0.1241E+02
 -11.132  0.0000E+00  0.1241E+02
 -11.122  0.0000E+00  0.1241E+02
 -11.112  0.0000E+00  0.1241E+02
 -11.102  0.0000E+00  0.1241E+02
 -11.092  0.0000E+00  0.1241E+02
 -11.082  0.0000E+00  0.1241E+02
 -11.072  0.0000E+00  0.1241E+02
 -11.062  0.0000E+00  0.1241E+02
 -11.052  0.0000E+00  0.1241E+02
 -11.042  0.0000E+00  0.1241E+02
 -11.032  0.0000E+00  0.1241E+02
 -11.022  0.0000E+00  0.1241E+02
 -11.012  0.0000E+00  0.1241E+02
 -11.002  0.0000E+00  0.1241E+02
 -10.992  0.0000E+00  0.1241E+02
 -10.982  0.0000E+00  0.1241E+02
 -10.972  0.0000E+00  0.1241E+02
 -10.962  0.0000E+00  0.1241E+02
 -10.952  0.0000E+00  0.1241E+02
 -10.942  0.0000E+00  0.1241E+02
 -10.932  0.0000E+00  0.1241E+02
 -10.922  0.0000E+00  0.1241E+02
 -10.912  0.0000E+00  0.1241E+02
 -10.902  0.0000E+00  0.1241E+02
 -10.892  0.0000E+00  0.1241E+02
 -10.882  0.0000E+00  0.1241E+02
 -10.872  0.0000E+00  0.1241E+02
 -10.862  0.0000E+00  0.1241E+02
 -10.852  0.0000E+00  0.1241E+02
 -10.842  0.0000E+00  0.1241E+02
 -10.832  0.0000E+00  0.1241E+02
 -10.822  0.0000E+00  0.1241E+02
 -10.812  0.0000E+00  0.1241E+02
 -10.802  0.0000E+00  0.1241E+02
 -10.792  0.0000E+00  0.1241E+02
 -10.782  0.0000E+00  0.1241E+02
 -10.772  0.0000E+00  0.1241E+02
 -10.762  0.0000E+00  0.1241E+02
 -10.752  0.0000E+00  0.1241E+02
 -10.742  0.0000E+00  0.1241E+02
