#  E (eV)   dos(E)     Int dos(E) EFermi =   2.573 eV
 -17.384  0.6134E-05  0.6134E-07
 -17.374  0.8393E-05  0.1453E-06
 -17.364  0.1143E-04  0.2596E-06
 -17.354  0.1550E-04  0.4146E-06
 -17.344  0.2093E-04  0.6240E-06
 -17.334  0.2814E-04  0.9054E-06
 -17.324  0.3766E-04  0.1282E-05
 -17.314  0.5018E-04  0.1784E-05
 -17.304  0.6657E-04  0.2449E-05
 -17.294  0.8792E-04  0.3329E-05
 -17.284  0.1156E-03  0.4485E-05
 -17.274  0.1514E-03  0.5998E-05
 -17.264  0.1973E-03  0.7971E-05
 -17.254  0.2561E-03  0.1053E-04
 -17.244  0.3309E-03  0.1384E-04
 -17.234  0.4257E-03  0.1810E-04
 -17.224  0.5453E-03  0.2355E-04
 -17.214  0.6956E-03  0.3051E-04
 -17.204  0.8833E-03  0.3934E-04
 -17.194  0.1117E-02  0.5051E-04
 -17.184  0.1406E-02  0.6458E-04
 -17.174  0.1763E-02  0.8221E-04
 -17.164  0.2201E-02  0.1042E-03
 -17.154  0.2737E-02  0.1316E-03
 -17.144  0.3388E-02  0.1655E-03
 -17.134  0.4176E-02  0.2072E-03
 -17.124  0.5126E-02  0.2585E-03
 -17.114  0.6266E-02  0.3211E-03
 -17.104  0.7628E-02  0.3974E-03
 -17.094  0.9247E-02  0.4899E-03
 -17.084  0.1116E-01  0.6015E-03
 -17.074  0.1342E-01  0.7358E-03
 -17.064  0.1607E-01  0.8965E-03
 -17.054  0.1917E-01  0.1088E-02
 -17.044  0.2277E-01  0.1316E-02
 -17.034  0.2694E-01  0.1585E-02
 -17.024  0.3175E-01  0.1903E-02
 -17.014  0.3727E-01  0.2275E-02
 -17.004  0.4357E-01  0.2711E-02
 -16.994  0.5075E-01  0.3219E-02
 -16.984  0.5888E-01  0.3808E-02
 -16.974  0.6806E-01  0.4488E-02
 -16.964  0.7837E-01  0.5272E-02
 -16.954  0.8991E-01  0.6171E-02
 -16.944  0.1028E+00  0.7199E-02
 -16.934  0.1170E+00  0.8369E-02
 -16.924  0.1328E+00  0.9697E-02
 -16.914  0.1502E+00  0.1120E-01
 -16.904  0.1692E+00  0.1289E-01
 -16.894  0.1900E+00  0.1479E-01
 -16.884  0.2126E+00  0.1692E-01
 -16.874  0.2372E+00  0.1929E-01
 -16.864  0.2637E+00  0.2193E-01
 -16.854  0.2922E+00  0.2485E-01
 -16.844  0.3227E+00  0.2807E-01
 -16.834  0.3554E+00  0.3163E-01
 -16.824  0.3901E+00  0.3553E-01
 -16.814  0.4270E+00  0.3980E-01
 -16.804  0.4661E+00  0.4446E-01
 -16.794  0.5072E+00  0.4953E-01
 -16.784  0.5504E+00  0.5504E-01
 -16.774  0.5958E+00  0.6100E-01
 -16.764  0.6432E+00  0.6743E-01
 -16.754  0.6926E+00  0.7435E-01
 -16.744  0.7440E+00  0.8179E-01
 -16.734  0.7973E+00  0.8977E-01
 -16.724  0.8525E+00  0.9829E-01
 -16.714  0.9096E+00  0.1074E+00
 -16.704  0.9684E+00  0.1171E+00
 -16.694  0.1029E+01  0.1274E+00
 -16.684  0.1091E+01  0.1383E+00
 -16.674  0.1155E+01  0.1498E+00
 -16.664  0.1221E+01  0.1620E+00
 -16.654  0.1289E+01  0.1749E+00
 -16.644  0.1358E+01  0.1885E+00
 -16.634  0.1429E+01  0.2028E+00
 -16.624  0.1501E+01  0.2178E+00
 -16.614  0.1575E+01  0.2336E+00
 -16.604  0.1651E+01  0.2501E+00
 -16.594  0.1729E+01  0.2674E+00
 -16.584  0.1809E+01  0.2854E+00
 -16.574  0.1890E+01  0.3043E+00
 -16.564  0.1974E+01  0.3241E+00
 -16.554  0.2059E+01  0.3447E+00
 -16.544  0.2146E+01  0.3661E+00
 -16.534  0.2235E+01  0.3885E+00
 -16.524  0.2326E+01  0.4117E+00
 -16.514  0.2419E+01  0.4359E+00
 -16.504  0.2513E+01  0.4611E+00
 -16.494  0.2609E+01  0.4872E+00
 -16.484  0.2706E+01  0.5142E+00
 -16.474  0.2804E+01  0.5423E+00
 -16.464  0.2903E+01  0.5713E+00
 -16.454  0.3002E+01  0.6013E+00
 -16.444  0.3101E+01  0.6323E+00
 -16.434  0.3200E+01  0.6643E+00
 -16.424  0.3297E+01  0.6973E+00
 -16.414  0.3393E+01  0.7312E+00
 -16.404  0.3486E+01  0.7661E+00
 -16.394  0.3577E+01  0.8019E+00
 -16.384  0.3664E+01  0.8385E+00
 -16.374  0.3746E+01  0.8760E+00
 -16.364  0.3824E+01  0.9142E+00
 -16.354  0.3896E+01  0.9532E+00
 -16.344  0.3962E+01  0.9928E+00
 -16.334  0.4020E+01  0.1033E+01
 -16.324  0.4071E+01  0.1074E+01
 -16.314  0.4114E+01  0.1115E+01
 -16.304  0.4148E+01  0.1156E+01
 -16.294  0.4173E+01  0.1198E+01
 -16.284  0.4189E+01  0.1240E+01
 -16.274  0.4195E+01  0.1282E+01
 -16.264  0.4191E+01  0.1324E+01
 -16.254  0.4178E+01  0.1366E+01
 -16.244  0.4155E+01  0.1407E+01
 -16.234  0.4124E+01  0.1448E+01
 -16.224  0.4084E+01  0.1489E+01
 -16.214  0.4035E+01  0.1530E+01
 -16.204  0.3980E+01  0.1569E+01
 -16.194  0.3917E+01  0.1609E+01
 -16.184  0.3849E+01  0.1647E+01
 -16.174  0.3777E+01  0.1685E+01
 -16.164  0.3701E+01  0.1722E+01
 -16.154  0.3623E+01  0.1758E+01
 -16.144  0.3544E+01  0.1793E+01
 -16.134  0.3465E+01  0.1828E+01
 -16.124  0.3387E+01  0.1862E+01
 -16.114  0.3312E+01  0.1895E+01
 -16.104  0.3241E+01  0.1928E+01
 -16.094  0.3175E+01  0.1959E+01
 -16.084  0.3115E+01  0.1990E+01
 -16.074  0.3062E+01  0.2021E+01
 -16.064  0.3017E+01  0.2051E+01
 -16.054  0.2981E+01  0.2081E+01
 -16.044  0.2955E+01  0.2111E+01
 -16.034  0.2937E+01  0.2140E+01
 -16.024  0.2930E+01  0.2169E+01
 -16.014  0.2933E+01  0.2199E+01
 -16.004  0.2946E+01  0.2228E+01
 -15.994  0.2969E+01  0.2258E+01
 -15.984  0.3001E+01  0.2288E+01
 -15.974  0.3042E+01  0.2318E+01
 -15.964  0.3091E+01  0.2349E+01
 -15.954  0.3147E+01  0.2381E+01
 -15.944  0.3209E+01  0.2413E+01
 -15.934  0.3276E+01  0.2445E+01
 -15.924  0.3346E+01  0.2479E+01
 -15.914  0.3420E+01  0.2513E+01
 -15.904  0.3494E+01  0.2548E+01
 -15.894  0.3568E+01  0.2584E+01
 -15.884  0.3641E+01  0.2620E+01
 -15.874  0.3711E+01  0.2657E+01
 -15.864  0.3776E+01  0.2695E+01
 -15.854  0.3837E+01  0.2733E+01
 -15.844  0.3891E+01  0.2772E+01
 -15.834  0.3937E+01  0.2812E+01
 -15.824  0.3975E+01  0.2851E+01
 -15.814  0.4004E+01  0.2891E+01
 -15.804  0.4024E+01  0.2932E+01
 -15.794  0.4033E+01  0.2972E+01
 -15.784  0.4032E+01  0.3012E+01
 -15.774  0.4020E+01  0.3052E+01
 -15.764  0.3998E+01  0.3092E+01
 -15.754  0.3966E+01  0.3132E+01
 -15.744  0.3924E+01  0.3171E+01
 -15.734  0.3872E+01  0.3210E+01
 -15.724  0.3811E+01  0.3248E+01
 -15.714  0.3743E+01  0.3286E+01
 -15.704  0.3667E+01  0.3322E+01
 -15.694  0.3585E+01  0.3358E+01
 -15.684  0.3497E+01  0.3393E+01
 -15.674  0.3405E+01  0.3427E+01
 -15.664  0.3309E+01  0.3460E+01
 -15.654  0.3211E+01  0.3492E+01
 -15.644  0.3112E+01  0.3523E+01
 -15.634  0.3013E+01  0.3554E+01
 -15.624  0.2915E+01  0.3583E+01
 -15.614  0.2818E+01  0.3611E+01
 -15.604  0.2725E+01  0.3638E+01
 -15.594  0.2636E+01  0.3665E+01
 -15.584  0.2552E+01  0.3690E+01
 -15.574  0.2473E+01  0.3715E+01
 -15.564  0.2401E+01  0.3739E+01
 -15.554  0.2336E+01  0.3762E+01
 -15.544  0.2280E+01  0.3785E+01
 -15.534  0.2231E+01  0.3807E+01
 -15.524  0.2192E+01  0.3829E+01
 -15.514  0.2163E+01  0.3851E+01
 -15.504  0.2143E+01  0.3872E+01
 -15.494  0.2133E+01  0.3894E+01
 -15.484  0.2133E+01  0.3915E+01
 -15.474  0.2144E+01  0.3936E+01
 -15.464  0.2165E+01  0.3958E+01
 -15.454  0.2196E+01  0.3980E+01
 -15.444  0.2238E+01  0.4002E+01
 -15.434  0.2288E+01  0.4025E+01
 -15.424  0.2348E+01  0.4049E+01
 -15.414  0.2417E+01  0.4073E+01
 -15.404  0.2494E+01  0.4098E+01
 -15.394  0.2577E+01  0.4124E+01
 -15.384  0.2668E+01  0.4150E+01
 -15.374  0.2763E+01  0.4178E+01
 -15.364  0.2863E+01  0.4207E+01
 -15.354  0.2967E+01  0.4236E+01
 -15.344  0.3072E+01  0.4267E+01
 -15.334  0.3179E+01  0.4299E+01
 -15.324  0.3285E+01  0.4332E+01
 -15.314  0.3390E+01  0.4365E+01
 -15.304  0.3491E+01  0.4400E+01
 -15.294  0.3589E+01  0.4436E+01
 -15.284  0.3681E+01  0.4473E+01
 -15.274  0.3767E+01  0.4511E+01
 -15.264  0.3845E+01  0.4549E+01
 -15.254  0.3915E+01  0.4588E+01
 -15.244  0.3975E+01  0.4628E+01
 -15.234  0.4025E+01  0.4668E+01
 -15.224  0.4065E+01  0.4709E+01
 -15.214  0.4093E+01  0.4750E+01
 -15.204  0.4110E+01  0.4791E+01
 -15.194  0.4115E+01  0.4832E+01
 -15.184  0.4109E+01  0.4873E+01
 -15.174  0.4091E+01  0.4914E+01
 -15.164  0.4063E+01  0.4955E+01
 -15.154  0.4024E+01  0.4995E+01
 -15.144  0.3976E+01  0.5035E+01
 -15.134  0.3919E+01  0.5074E+01
 -15.124  0.3854E+01  0.5112E+01
 -15.114  0.3783E+01  0.5150E+01
 -15.104  0.3707E+01  0.5187E+01
 -15.094  0.3627E+01  0.5224E+01
 -15.084  0.3544E+01  0.5259E+01
 -15.074  0.3461E+01  0.5294E+01
 -15.064  0.3378E+01  0.5327E+01
 -15.054  0.3297E+01  0.5360E+01
 -15.044  0.3220E+01  0.5393E+01
 -15.034  0.3149E+01  0.5424E+01
 -15.024  0.3086E+01  0.5455E+01
 -15.014  0.3032E+01  0.5485E+01
 -15.004  0.2989E+01  0.5515E+01
 -14.994  0.2960E+01  0.5545E+01
 -14.984  0.2945E+01  0.5574E+01
 -14.974  0.2948E+01  0.5604E+01
 -14.964  0.2970E+01  0.5633E+01
 -14.954  0.3012E+01  0.5664E+01
 -14.944  0.3078E+01  0.5694E+01
 -14.934  0.3169E+01  0.5726E+01
 -14.924  0.3286E+01  0.5759E+01
 -14.914  0.3432E+01  0.5793E+01
 -14.904  0.3608E+01  0.5829E+01
 -14.894  0.3816E+01  0.5867E+01
 -14.884  0.4057E+01  0.5908E+01
 -14.874  0.4332E+01  0.5951E+01
 -14.864  0.4641E+01  0.5998E+01
 -14.854  0.4986E+01  0.6048E+01
 -14.844  0.5366E+01  0.6101E+01
 -14.834  0.5781E+01  0.6159E+01
 -14.824  0.6230E+01  0.6221E+01
 -14.814  0.6711E+01  0.6288E+01
 -14.804  0.7222E+01  0.6361E+01
 -14.794  0.7761E+01  0.6438E+01
 -14.784  0.8324E+01  0.6522E+01
 -14.774  0.8908E+01  0.6611E+01
 -14.764  0.9508E+01  0.6706E+01
 -14.754  0.1012E+02  0.6807E+01
 -14.744  0.1074E+02  0.6914E+01
 -14.734  0.1135E+02  0.7028E+01
 -14.724  0.1196E+02  0.7147E+01
 -14.714  0.1256E+02  0.7273E+01
 -14.704  0.1314E+02  0.7404E+01
 -14.694  0.1369E+02  0.7541E+01
 -14.684  0.1421E+02  0.7683E+01
 -14.674  0.1469E+02  0.7830E+01
 -14.664  0.1512E+02  0.7981E+01
 -14.654  0.1550E+02  0.8136E+01
 -14.644  0.1582E+02  0.8295E+01
 -14.634  0.1608E+02  0.8455E+01
 -14.624  0.1628E+02  0.8618E+01
 -14.614  0.1640E+02  0.8782E+01
 -14.604  0.1646E+02  0.8947E+01
 -14.594  0.1644E+02  0.9111E+01
 -14.584  0.1636E+02  0.9275E+01
 -14.574  0.1620E+02  0.9437E+01
 -14.564  0.1597E+02  0.9597E+01
 -14.554  0.1568E+02  0.9753E+01
 -14.544  0.1532E+02  0.9906E+01
 -14.534  0.1490E+02  0.1006E+02
 -14.524  0.1443E+02  0.1020E+02
 -14.514  0.1392E+02  0.1034E+02
 -14.504  0.1336E+02  0.1047E+02
 -14.494  0.1277E+02  0.1060E+02
 -14.484  0.1214E+02  0.1072E+02
 -14.474  0.1150E+02  0.1084E+02
 -14.464  0.1084E+02  0.1095E+02
 -14.454  0.1018E+02  0.1105E+02
 -14.444  0.9508E+01  0.1114E+02
 -14.434  0.8843E+01  0.1123E+02
 -14.424  0.8188E+01  0.1131E+02
 -14.414  0.7546E+01  0.1139E+02
 -14.404  0.6924E+01  0.1146E+02
 -14.394  0.6324E+01  0.1152E+02
 -14.384  0.5750E+01  0.1158E+02
 -14.374  0.5205E+01  0.1163E+02
 -14.364  0.4689E+01  0.1168E+02
 -14.354  0.4206E+01  0.1172E+02
 -14.344  0.3755E+01  0.1176E+02
 -14.334  0.3338E+01  0.1179E+02
 -14.324  0.2953E+01  0.1182E+02
 -14.314  0.2601E+01  0.1185E+02
 -14.304  0.2280E+01  0.1187E+02
 -14.294  0.1990E+01  0.1189E+02
 -14.284  0.1729E+01  0.1191E+02
 -14.274  0.1495E+01  0.1192E+02
 -14.264  0.1287E+01  0.1193E+02
 -14.254  0.1103E+01  0.1194E+02
 -14.244  0.9406E+00  0.1195E+02
 -14.234  0.7986E+00  0.1196E+02
 -14.224  0.6750E+00  0.1197E+02
 -14.214  0.5679E+00  0.1197E+02
 -14.204  0.4756E+00  0.1198E+02
 -14.194  0.3965E+00  0.1198E+02
 -14.184  0.3290E+00  0.1199E+02
 -14.174  0.2718E+00  0.1199E+02
 -14.164  0.2235E+00  0.1199E+02
 -14.154  0.1829E+00  0.1199E+02
 -14.144  0.1490E+00  0.1199E+02
 -14.134  0.1208E+00  0.1200E+02
 -14.124  0.9755E-01  0.1200E+02
 -14.114  0.7839E-01  0.1200E+02
 -14.104  0.6270E-01  0.1200E+02
 -14.094  0.4992E-01  0.1200E+02
 -14.084  0.3956E-01  0.1200E+02
 -14.074  0.3121E-01  0.1200E+02
 -14.064  0.2450E-01  0.1200E+02
 -14.054  0.1915E-01  0.1200E+02
 -14.044  0.1490E-01  0.1200E+02
 -14.034  0.1154E-01  0.1200E+02
 -14.024  0.8895E-02  0.1200E+02
 -14.014  0.6825E-02  0.1200E+02
 -14.004  0.5213E-02  0.1200E+02
 -13.994  0.3963E-02  0.1200E+02
 -13.984  0.2999E-02  0.1200E+02
 -13.974  0.2259E-02  0.1200E+02
 -13.964  0.1693E-02  0.1200E+02
 -13.954  0.1264E-02  0.1200E+02
 -13.944  0.9387E-03  0.1200E+02
 -13.934  0.6940E-03  0.1200E+02
 -13.924  0.5108E-03  0.1200E+02
 -13.914  0.3742E-03  0.1200E+02
 -13.904  0.2728E-03  0.1200E+02
 -13.894  0.1980E-03  0.1200E+02
 -13.884  0.1430E-03  0.1200E+02
 -13.874  0.1029E-03  0.1200E+02
 -13.864  0.7362E-04  0.1200E+02
 -13.854  0.5245E-04  0.1200E+02
 -13.844  0.3719E-04  0.1200E+02
 -13.834  0.2625E-04  0.1200E+02
 -13.824  0.1844E-04  0.1200E+02
 -13.814  0.1290E-04  0.1200E+02
 -13.804  0.8976E-05  0.1200E+02
 -13.794  0.6219E-05  0.1200E+02
 -13.784  0.4288E-05  0.1200E+02
 -13.774  0.2943E-05  0.1200E+02
 -13.764  0.2011E-05  0.1200E+02
 -13.754  0.1367E-05  0.1200E+02
 -13.744  0.9255E-06  0.1200E+02
 -13.734  0.6235E-06  0.1200E+02
 -13.724  0.4181E-06  0.1200E+02
 -13.714  0.2791E-06  0.1200E+02
 -13.704  0.1854E-06  0.1200E+02
 -13.694  0.1226E-06  0.1200E+02
 -13.684  0.8068E-07  0.1200E+02
 -13.674  0.5285E-07  0.1200E+02
 -13.664  0.3446E-07  0.1200E+02
 -13.654  0.2237E-07  0.1200E+02
 -13.644  0.1445E-07  0.1200E+02
 -13.634  0.9289E-08  0.1200E+02
 -13.624  0.5945E-08  0.1200E+02
 -13.614  0.3787E-08  0.1200E+02
 -13.604  0.2401E-08  0.1200E+02
 -13.594  0.1515E-08  0.1200E+02
 -13.584  0.9516E-09  0.1200E+02
 -13.574  0.5949E-09  0.1200E+02
 -13.564  0.3702E-09  0.1200E+02
 -13.554  0.2293E-09  0.1200E+02
 -13.544  0.1413E-09  0.1200E+02
 -13.534  0.8672E-10  0.1200E+02
 -13.524  0.5296E-10  0.1200E+02
 -13.514  0.3219E-10  0.1200E+02
 -13.504  0.1948E-10  0.1200E+02
 -13.494  0.1173E-10  0.1200E+02
 -13.484  0.7030E-11  0.1200E+02
 -13.474  0.4194E-11  0.1200E+02
 -13.464  0.2490E-11  0.1200E+02
 -13.454  0.1472E-11  0.1200E+02
 -13.444  0.8657E-12  0.1200E+02
 -13.434  0.5068E-12  0.1200E+02
 -13.424  0.2953E-12  0.1200E+02
 -13.414  0.1713E-12  0.1200E+02
 -13.404  0.9889E-13  0.1200E+02
 -13.394  0.5682E-13  0.1200E+02
 -13.384  0.3250E-13  0.1200E+02
 -13.374  0.1850E-13  0.1200E+02
 -13.364  0.1048E-13  0.1200E+02
 -13.354  0.5910E-14  0.1200E+02
 -13.344  0.3317E-14  0.1200E+02
 -13.334  0.1853E-14  0.1200E+02
 -13.324  0.1030E-14  0.1200E+02
 -13.314  0.5701E-15  0.1200E+02
 -13.304  0.3140E-15  0.1200E+02
 -13.294  0.1722E-15  0.1200E+02
 -13.284  0.9394E-16  0.1200E+02
 -13.274  0.5102E-16  0.1200E+02
 -13.264  0.2758E-16  0.1200E+02
 -13.254  0.1484E-16  0.1200E+02
 -13.244  0.7945E-17  0.1200E+02
 -13.234  0.4235E-17  0.1200E+02
 -13.224  0.2246E-17  0.1200E+02
 -13.214  0.1186E-17  0.1200E+02
 -13.204  0.6233E-18  0.1200E+02
 -13.194  0.3260E-18  0.1200E+02
 -13.184  0.1697E-18  0.1200E+02
 -13.174  0.8793E-19  0.1200E+02
 -13.164  0.4534E-19  0.1200E+02
 -13.154  0.2327E-19  0.1200E+02
 -13.144  0.1189E-19  0.1200E+02
 -13.134  0.6046E-20  0.1200E+02
 -13.124  0.3060E-20  0.1200E+02
 -13.114  0.1541E-20  0.1200E+02
 -13.104  0.7726E-21  0.1200E+02
 -13.094  0.3855E-21  0.1200E+02
 -13.084  0.1915E-21  0.1200E+02
 -13.074  0.9463E-22  0.1200E+02
 -13.064  0.4656E-22  0.1200E+02
 -13.054  0.2280E-22  0.1200E+02
 -13.044  0.1111E-22  0.1200E+02
 -13.034  0.5389E-23  0.1200E+02
 -13.024  0.2602E-23  0.1200E+02
 -13.014  0.1250E-23  0.1200E+02
 -13.004  0.5978E-24  0.1200E+02
 -12.994  0.2846E-24  0.1200E+02
 -12.984  0.1348E-24  0.1200E+02
 -12.974  0.6356E-25  0.1200E+02
 -12.964  0.2983E-25  0.1200E+02
 -12.954  0.1393E-25  0.1200E+02
 -12.944  0.6477E-26  0.1200E+02
 -12.934  0.2997E-26  0.1200E+02
 -12.924  0.1380E-26  0.1200E+02
 -12.914  0.6326E-27  0.1200E+02
 -12.904  0.2886E-27  0.1200E+02
 -12.894  0.1310E-27  0.1200E+02
 -12.884  0.5921E-28  0.1200E+02
 -12.874  0.2663E-28  0.1200E+02
 -12.864  0.1192E-28  0.1200E+02
 -12.854  0.5312E-29  0.1200E+02
 -12.844  0.2355E-29  0.1200E+02
 -12.834  0.1040E-29  0.1200E+02
 -12.824  0.4566E-30  0.1200E+02
 -12.814  0.1996E-30  0.1200E+02
 -12.804  0.8687E-31  0.1200E+02
 -12.794  0.3762E-31  0.1200E+02
 -12.784  0.1622E-31  0.1200E+02
 -12.774  0.6957E-32  0.1200E+02
 -12.764  0.2970E-32  0.1200E+02
 -12.754  0.1262E-32  0.1200E+02
 -12.744  0.5339E-33  0.1200E+02
 -12.734  0.2247E-33  0.1200E+02
 -12.724  0.9416E-34  0.1200E+02
 -12.714  0.3927E-34  0.1200E+02
 -12.704  0.1630E-34  0.1200E+02
 -12.694  0.6731E-35  0.1200E+02
 -12.684  0.2767E-35  0.1200E+02
 -12.674  0.1132E-35  0.1200E+02
 -12.664  0.4611E-36  0.1200E+02
 -12.654  0.1869E-36  0.1200E+02
 -12.644  0.7540E-37  0.1200E+02
 -12.634  0.3027E-37  0.1200E+02
 -12.624  0.1210E-37  0.1200E+02
 -12.614  0.4811E-38  0.1200E+02
 -12.604  0.1904E-38  0.1200E+02
 -12.594  0.7502E-39  0.1200E+02
 -12.584  0.2941E-39  0.1200E+02
 -12.574  0.1148E-39  0.1200E+02
 -12.564  0.4458E-40  0.1200E+02
 -12.554  0.1723E-40  0.1200E+02
 -12.544  0.6630E-41  0.1200E+02
 -12.534  0.2539E-41  0.1200E+02
 -12.524  0.9676E-42  0.1200E+02
 -12.514  0.3670E-42  0.1200E+02
 -12.504  0.1385E-42  0.1200E+02
 -12.494  0.5205E-43  0.1200E+02
 -12.484  0.1946E-43  0.1200E+02
 -12.474  0.7244E-44  0.1200E+02
 -12.464  0.2683E-44  0.1200E+02
 -12.454  0.9892E-45  0.1200E+02
 -12.444  0.3630E-45  0.1200E+02
 -12.434  0.1325E-45  0.1200E+02
 -12.424  0.4817E-46  0.1200E+02
 -12.414  0.1742E-46  0.1200E+02
 -12.404  0.6273E-47  0.1200E+02
 -12.394  0.2248E-47  0.1200E+02
 -12.384  0.8015E-48  0.1200E+02
 -12.374  0.2845E-48  0.1200E+02
 -12.364  0.1005E-48  0.1200E+02
 -12.354  0.3533E-49  0.1200E+02
 -12.344  0.1236E-49  0.1200E+02
 -12.334  0.4305E-50  0.1200E+02
 -12.324  0.1492E-50  0.1200E+02
 -12.314  0.5147E-51  0.1200E+02
 -12.304  0.1767E-51  0.1200E+02
 -12.294  0.6037E-52  0.1200E+02
 -12.284  0.2053E-52  0.1200E+02
 -12.274  0.6949E-53  0.1200E+02
 -12.264  0.2341E-53  0.1200E+02
 -12.254  0.7847E-54  0.1200E+02
 -12.244  0.2618E-54  0.1200E+02
 -12.234  0.8695E-55  0.1200E+02
 -12.224  0.2874E-55  0.1200E+02
 -12.214  0.9453E-56  0.1200E+02
 -12.204  0.3095E-56  0.1200E+02
 -12.194  0.1008E-56  0.1200E+02
 -12.184  0.3270E-57  0.1200E+02
 -12.174  0.1055E-57  0.1200E+02
 -12.164  0.3390E-58  0.1200E+02
 -12.154  0.1084E-58  0.1200E+02
 -12.144  0.3448E-59  0.1200E+02
 -12.134  0.1092E-59  0.1200E+02
 -12.124  0.3441E-60  0.1200E+02
 -12.114  0.1079E-60  0.1200E+02
 -12.104  0.3369E-61  0.1200E+02
 -12.094  0.1047E-61  0.1200E+02
 -12.084  0.3237E-62  0.1200E+02
 -12.074  0.9962E-63  0.1200E+02
 -12.064  0.3051E-63  0.1200E+02
 -12.054  0.9301E-64  0.1200E+02
 -12.044  0.2822E-64  0.1200E+02
 -12.034  0.8520E-65  0.1200E+02
 -12.024  0.2560E-65  0.1200E+02
 -12.014  0.7658E-66  0.1200E+02
 -12.004  0.2280E-66  0.1200E+02
 -11.994  0.6753E-67  0.1200E+02
 -11.984  0.1991E-67  0.1200E+02
 -11.974  0.5843E-68  0.1200E+02
 -11.964  0.1706E-68  0.1200E+02
 -11.954  0.4960E-69  0.1200E+02
 -11.944  0.1435E-69  0.1200E+02
 -11.934  0.4131E-70  0.1200E+02
 -11.924  0.1184E-70  0.1200E+02
 -11.914  0.3375E-71  0.1200E+02
 -11.904  0.9580E-72  0.1200E+02
 -11.894  0.2706E-72  0.1200E+02
 -11.884  0.7608E-73  0.1200E+02
 -11.874  0.2129E-73  0.1200E+02
 -11.864  0.5927E-74  0.1200E+02
 -11.854  0.1643E-74  0.1200E+02
 -11.844  0.4531E-75  0.1200E+02
 -11.834  0.1244E-75  0.1200E+02
 -11.824  0.3398E-76  0.1200E+02
 -11.814  0.9239E-77  0.1200E+02
 -11.804  0.2500E-77  0.1200E+02
 -11.794  0.6734E-78  0.1200E+02
 -11.784  0.1805E-78  0.1200E+02
 -11.774  0.4815E-79  0.1200E+02
 -11.764  0.1278E-79  0.1200E+02
 -11.754  0.3378E-80  0.1200E+02
 -11.744  0.8885E-81  0.1200E+02
 -11.734  0.2327E-81  0.1200E+02
 -11.724  0.6073E-82  0.1200E+02
 -11.714  0.1587E-82  0.1200E+02
 -11.704  0.4223E-83  0.1200E+02
 -11.694  0.1214E-83  0.1200E+02
 -11.684  0.4417E-84  0.1200E+02
 -11.674  0.2466E-84  0.1200E+02
 -11.664  0.1979E-84  0.1200E+02
 -11.654  0.1865E-84  0.1200E+02
 -11.644  0.1840E-84  0.1200E+02
 -11.634  0.1837E-84  0.1200E+02
 -11.624  0.1836E-84  0.1200E+02
 -11.614  0.1836E-84  0.1200E+02
 -11.604  0.1836E-84  0.1200E+02
 -11.594  0.1836E-84  0.1200E+02
 -11.584  0.1836E-84  0.1200E+02
 -11.574  0.1836E-84  0.1200E+02
 -11.564  0.1836E-84  0.1200E+02
 -11.554  0.1836E-84  0.1200E+02
 -11.544  0.1836E-84  0.1200E+02
 -11.534  0.1836E-84  0.1200E+02
 -11.524  0.1836E-84  0.1200E+02
 -11.514  0.1836E-84  0.1200E+02
 -11.504  0.1836E-84  0.1200E+02
 -11.494  0.1836E-84  0.1200E+02
 -11.484  0.1836E-84  0.1200E+02
 -11.474  0.1836E-84  0.1200E+02
 -11.464  0.1836E-84  0.1200E+02
 -11.454  0.1836E-84  0.1200E+02
 -11.444  0.1836E-84  0.1200E+02
 -11.434  0.1836E-84  0.1200E+02
 -11.424  0.1836E-84  0.1200E+02
 -11.414  0.1836E-84  0.1200E+02
 -11.404  0.1836E-84  0.1200E+02
 -11.394  0.1836E-84  0.1200E+02
 -11.384  0.1836E-84  0.1200E+02
 -11.374  0.1836E-84  0.1200E+02
 -11.364  0.1836E-84  0.1200E+02
 -11.354  0.1836E-84  0.1200E+02
