#  E (eV)   dos(E)     Int dos(E) EFermi =   2.570 eV
 -17.180  0.8696E-05  0.8696E-07
 -17.170  0.1352E-04  0.2222E-06
 -17.160  0.2082E-04  0.4304E-06
 -17.150  0.3172E-04  0.7476E-06
 -17.140  0.4785E-04  0.1226E-05
 -17.130  0.7146E-04  0.1941E-05
 -17.120  0.1057E-03  0.2997E-05
 -17.110  0.1547E-03  0.4544E-05
 -17.100  0.2243E-03  0.6788E-05
 -17.090  0.3221E-03  0.1001E-04
 -17.080  0.4582E-03  0.1459E-04
 -17.070  0.6456E-03  0.2105E-04
 -17.060  0.9012E-03  0.3006E-04
 -17.050  0.1246E-02  0.4252E-04
 -17.040  0.1709E-02  0.5961E-04
 -17.030  0.2321E-02  0.8282E-04
 -17.020  0.3126E-02  0.1141E-03
 -17.010  0.4174E-02  0.1558E-03
 -17.000  0.5526E-02  0.2111E-03
 -16.990  0.7256E-02  0.2836E-03
 -16.980  0.9451E-02  0.3781E-03
 -16.970  0.1221E-01  0.5003E-03
 -16.960  0.1566E-01  0.6569E-03
 -16.950  0.1993E-01  0.8562E-03
 -16.940  0.2518E-01  0.1108E-02
 -16.930  0.3158E-01  0.1424E-02
 -16.920  0.3933E-01  0.1817E-02
 -16.910  0.4865E-01  0.2304E-02
 -16.900  0.5977E-01  0.2901E-02
 -16.890  0.7294E-01  0.3631E-02
 -16.880  0.8843E-01  0.4515E-02
 -16.870  0.1065E+00  0.5580E-02
 -16.860  0.1275E+00  0.6855E-02
 -16.850  0.1516E+00  0.8371E-02
 -16.840  0.1792E+00  0.1016E-01
 -16.830  0.2104E+00  0.1227E-01
 -16.820  0.2456E+00  0.1472E-01
 -16.810  0.2848E+00  0.1757E-01
 -16.800  0.3282E+00  0.2085E-01
 -16.790  0.3757E+00  0.2461E-01
 -16.780  0.4275E+00  0.2889E-01
 -16.770  0.4832E+00  0.3372E-01
 -16.760  0.5427E+00  0.3914E-01
 -16.750  0.6056E+00  0.4520E-01
 -16.740  0.6713E+00  0.5191E-01
 -16.730  0.7394E+00  0.5931E-01
 -16.720  0.8091E+00  0.6740E-01
 -16.710  0.8798E+00  0.7620E-01
 -16.700  0.9506E+00  0.8570E-01
 -16.690  0.1021E+01  0.9591E-01
 -16.680  0.1089E+01  0.1068E+00
 -16.670  0.1156E+01  0.1184E+00
 -16.660  0.1220E+01  0.1306E+00
 -16.650  0.1282E+01  0.1434E+00
 -16.640  0.1340E+01  0.1568E+00
 -16.630  0.1395E+01  0.1707E+00
 -16.620  0.1448E+01  0.1852E+00
 -16.610  0.1498E+01  0.2002E+00
 -16.600  0.1548E+01  0.2157E+00
 -16.590  0.1598E+01  0.2317E+00
 -16.580  0.1650E+01  0.2482E+00
 -16.570  0.1705E+01  0.2652E+00
 -16.560  0.1765E+01  0.2829E+00
 -16.550  0.1832E+01  0.3012E+00
 -16.540  0.1906E+01  0.3202E+00
 -16.530  0.1990E+01  0.3401E+00
 -16.520  0.2083E+01  0.3610E+00
 -16.510  0.2188E+01  0.3828E+00
 -16.500  0.2304E+01  0.4059E+00
 -16.490  0.2431E+01  0.4302E+00
 -16.480  0.2568E+01  0.4559E+00
 -16.470  0.2713E+01  0.4830E+00
 -16.460  0.2867E+01  0.5117E+00
 -16.450  0.3026E+01  0.5419E+00
 -16.440  0.3188E+01  0.5738E+00
 -16.430  0.3352E+01  0.6073E+00
 -16.420  0.3514E+01  0.6425E+00
 -16.410  0.3673E+01  0.6792E+00
 -16.400  0.3827E+01  0.7175E+00
 -16.390  0.3974E+01  0.7572E+00
 -16.380  0.4112E+01  0.7983E+00
 -16.370  0.4239E+01  0.8407E+00
 -16.360  0.4356E+01  0.8843E+00
 -16.350  0.4462E+01  0.9289E+00
 -16.340  0.4555E+01  0.9744E+00
 -16.330  0.4635E+01  0.1021E+01
 -16.320  0.4703E+01  0.1068E+01
 -16.310  0.4758E+01  0.1115E+01
 -16.300  0.4800E+01  0.1163E+01
 -16.290  0.4827E+01  0.1212E+01
 -16.280  0.4841E+01  0.1260E+01
 -16.270  0.4840E+01  0.1308E+01
 -16.260  0.4823E+01  0.1357E+01
 -16.250  0.4791E+01  0.1405E+01
 -16.240  0.4743E+01  0.1452E+01
 -16.230  0.4678E+01  0.1499E+01
 -16.220  0.4597E+01  0.1545E+01
 -16.210  0.4500E+01  0.1590E+01
 -16.200  0.4388E+01  0.1634E+01
 -16.190  0.4261E+01  0.1676E+01
 -16.180  0.4122E+01  0.1718E+01
 -16.170  0.3973E+01  0.1757E+01
 -16.160  0.3815E+01  0.1795E+01
 -16.150  0.3652E+01  0.1832E+01
 -16.140  0.3487E+01  0.1867E+01
 -16.130  0.3321E+01  0.1900E+01
 -16.120  0.3159E+01  0.1932E+01
 -16.110  0.3003E+01  0.1962E+01
 -16.100  0.2855E+01  0.1990E+01
 -16.090  0.2719E+01  0.2017E+01
 -16.080  0.2597E+01  0.2043E+01
 -16.070  0.2490E+01  0.2068E+01
 -16.060  0.2400E+01  0.2092E+01
 -16.050  0.2329E+01  0.2116E+01
 -16.040  0.2277E+01  0.2138E+01
 -16.030  0.2245E+01  0.2161E+01
 -16.020  0.2233E+01  0.2183E+01
 -16.010  0.2241E+01  0.2205E+01
 -16.000  0.2269E+01  0.2228E+01
 -15.990  0.2316E+01  0.2251E+01
 -15.980  0.2381E+01  0.2275E+01
 -15.970  0.2462E+01  0.2300E+01
 -15.960  0.2559E+01  0.2325E+01
 -15.950  0.2668E+01  0.2352E+01
 -15.940  0.2790E+01  0.2380E+01
 -15.930  0.2921E+01  0.2409E+01
 -15.920  0.3060E+01  0.2440E+01
 -15.910  0.3204E+01  0.2472E+01
 -15.900  0.3352E+01  0.2505E+01
 -15.890  0.3502E+01  0.2540E+01
 -15.880  0.3652E+01  0.2577E+01
 -15.870  0.3800E+01  0.2615E+01
 -15.860  0.3945E+01  0.2654E+01
 -15.850  0.4086E+01  0.2695E+01
 -15.840  0.4220E+01  0.2737E+01
 -15.830  0.4346E+01  0.2781E+01
 -15.820  0.4464E+01  0.2825E+01
 -15.810  0.4570E+01  0.2871E+01
 -15.800  0.4664E+01  0.2918E+01
 -15.790  0.4744E+01  0.2965E+01
 -15.780  0.4807E+01  0.3013E+01
 -15.770  0.4853E+01  0.3062E+01
 -15.760  0.4878E+01  0.3111E+01
 -15.750  0.4881E+01  0.3159E+01
 -15.740  0.4860E+01  0.3208E+01
 -15.730  0.4815E+01  0.3256E+01
 -15.720  0.4745E+01  0.3304E+01
 -15.710  0.4649E+01  0.3350E+01
 -15.700  0.4527E+01  0.3395E+01
 -15.690  0.4381E+01  0.3439E+01
 -15.680  0.4213E+01  0.3481E+01
 -15.670  0.4025E+01  0.3522E+01
 -15.660  0.3819E+01  0.3560E+01
 -15.650  0.3599E+01  0.3596E+01
 -15.640  0.3369E+01  0.3629E+01
 -15.630  0.3134E+01  0.3661E+01
 -15.620  0.2896E+01  0.3690E+01
 -15.610  0.2661E+01  0.3716E+01
 -15.600  0.2432E+01  0.3741E+01
 -15.590  0.2214E+01  0.3763E+01
 -15.580  0.2009E+01  0.3783E+01
 -15.570  0.1820E+01  0.3801E+01
 -15.560  0.1650E+01  0.3818E+01
 -15.550  0.1502E+01  0.3833E+01
 -15.540  0.1375E+01  0.3846E+01
 -15.530  0.1273E+01  0.3859E+01
 -15.520  0.1194E+01  0.3871E+01
 -15.510  0.1139E+01  0.3882E+01
 -15.500  0.1108E+01  0.3894E+01
 -15.490  0.1100E+01  0.3905E+01
 -15.480  0.1114E+01  0.3916E+01
 -15.470  0.1148E+01  0.3927E+01
 -15.460  0.1203E+01  0.3939E+01
 -15.450  0.1276E+01  0.3952E+01
 -15.440  0.1365E+01  0.3966E+01
 -15.430  0.1471E+01  0.3980E+01
 -15.420  0.1591E+01  0.3996E+01
 -15.410  0.1724E+01  0.4013E+01
 -15.400  0.1870E+01  0.4032E+01
 -15.390  0.2028E+01  0.4052E+01
 -15.380  0.2197E+01  0.4074E+01
 -15.370  0.2377E+01  0.4098E+01
 -15.360  0.2567E+01  0.4124E+01
 -15.350  0.2766E+01  0.4151E+01
 -15.340  0.2974E+01  0.4181E+01
 -15.330  0.3189E+01  0.4213E+01
 -15.320  0.3409E+01  0.4247E+01
 -15.310  0.3633E+01  0.4284E+01
 -15.300  0.3858E+01  0.4322E+01
 -15.290  0.4081E+01  0.4363E+01
 -15.280  0.4299E+01  0.4406E+01
 -15.270  0.4507E+01  0.4451E+01
 -15.260  0.4701E+01  0.4498E+01
 -15.250  0.4878E+01  0.4547E+01
 -15.240  0.5033E+01  0.4597E+01
 -15.230  0.5162E+01  0.4649E+01
 -15.220  0.5261E+01  0.4701E+01
 -15.210  0.5328E+01  0.4755E+01
 -15.200  0.5361E+01  0.4808E+01
 -15.190  0.5359E+01  0.4862E+01
 -15.180  0.5321E+01  0.4915E+01
 -15.170  0.5248E+01  0.4968E+01
 -15.160  0.5143E+01  0.5019E+01
 -15.150  0.5008E+01  0.5069E+01
 -15.140  0.4846E+01  0.5117E+01
 -15.130  0.4661E+01  0.5164E+01
 -15.120  0.4459E+01  0.5209E+01
 -15.110  0.4243E+01  0.5251E+01
 -15.100  0.4019E+01  0.5291E+01
 -15.090  0.3790E+01  0.5329E+01
 -15.080  0.3562E+01  0.5365E+01
 -15.070  0.3338E+01  0.5398E+01
 -15.060  0.3121E+01  0.5429E+01
 -15.050  0.2915E+01  0.5459E+01
 -15.040  0.2720E+01  0.5486E+01
 -15.030  0.2539E+01  0.5511E+01
 -15.020  0.2372E+01  0.5535E+01
 -15.010  0.2221E+01  0.5557E+01
 -15.000  0.2085E+01  0.5578E+01
 -14.990  0.1965E+01  0.5598E+01
 -14.980  0.1861E+01  0.5616E+01
 -14.970  0.1773E+01  0.5634E+01
 -14.960  0.1700E+01  0.5651E+01
 -14.950  0.1643E+01  0.5667E+01
 -14.940  0.1604E+01  0.5683E+01
 -14.930  0.1582E+01  0.5699E+01
 -14.920  0.1580E+01  0.5715E+01
 -14.910  0.1599E+01  0.5731E+01
 -14.900  0.1642E+01  0.5747E+01
 -14.890  0.1713E+01  0.5765E+01
 -14.880  0.1815E+01  0.5783E+01
 -14.870  0.1954E+01  0.5802E+01
 -14.860  0.2134E+01  0.5824E+01
 -14.850  0.2362E+01  0.5847E+01
 -14.840  0.2644E+01  0.5874E+01
 -14.830  0.2987E+01  0.5904E+01
 -14.820  0.3399E+01  0.5938E+01
 -14.810  0.3886E+01  0.5976E+01
 -14.800  0.4455E+01  0.6021E+01
 -14.790  0.5112E+01  0.6072E+01
 -14.780  0.5860E+01  0.6131E+01
 -14.770  0.6702E+01  0.6198E+01
 -14.760  0.7639E+01  0.6274E+01
 -14.750  0.8668E+01  0.6361E+01
 -14.740  0.9782E+01  0.6459E+01
 -14.730  0.1097E+02  0.6568E+01
 -14.720  0.1222E+02  0.6690E+01
 -14.710  0.1352E+02  0.6826E+01
 -14.700  0.1484E+02  0.6974E+01
 -14.690  0.1616E+02  0.7136E+01
 -14.680  0.1746E+02  0.7310E+01
 -14.670  0.1870E+02  0.7497E+01
 -14.660  0.1986E+02  0.7696E+01
 -14.650  0.2090E+02  0.7905E+01
 -14.640  0.2181E+02  0.8123E+01
 -14.630  0.2255E+02  0.8348E+01
 -14.620  0.2310E+02  0.8579E+01
 -14.610  0.2345E+02  0.8814E+01
 -14.600  0.2359E+02  0.9050E+01
 -14.590  0.2351E+02  0.9285E+01
 -14.580  0.2321E+02  0.9517E+01
 -14.570  0.2270E+02  0.9744E+01
 -14.560  0.2200E+02  0.9964E+01
 -14.550  0.2112E+02  0.1018E+02
 -14.540  0.2008E+02  0.1038E+02
 -14.530  0.1891E+02  0.1057E+02
 -14.520  0.1764E+02  0.1074E+02
 -14.510  0.1630E+02  0.1090E+02
 -14.500  0.1491E+02  0.1105E+02
 -14.490  0.1352E+02  0.1119E+02
 -14.480  0.1213E+02  0.1131E+02
 -14.470  0.1079E+02  0.1142E+02
 -14.460  0.9499E+01  0.1151E+02
 -14.450  0.8283E+01  0.1160E+02
 -14.440  0.7153E+01  0.1167E+02
 -14.430  0.6117E+01  0.1173E+02
 -14.420  0.5180E+01  0.1178E+02
 -14.410  0.4344E+01  0.1182E+02
 -14.400  0.3608E+01  0.1186E+02
 -14.390  0.2967E+01  0.1189E+02
 -14.380  0.2416E+01  0.1191E+02
 -14.370  0.1948E+01  0.1193E+02
 -14.360  0.1555E+01  0.1195E+02
 -14.350  0.1229E+01  0.1196E+02
 -14.340  0.9620E+00  0.1197E+02
 -14.330  0.7455E+00  0.1198E+02
 -14.320  0.5720E+00  0.1198E+02
 -14.310  0.4345E+00  0.1199E+02
 -14.300  0.3268E+00  0.1199E+02
 -14.290  0.2434E+00  0.1199E+02
 -14.280  0.1794E+00  0.1200E+02
 -14.270  0.1309E+00  0.1200E+02
 -14.260  0.9461E-01  0.1200E+02
 -14.250  0.6768E-01  0.1200E+02
 -14.240  0.4793E-01  0.1200E+02
 -14.230  0.3360E-01  0.1200E+02
 -14.220  0.2332E-01  0.1200E+02
 -14.210  0.1602E-01  0.1200E+02
 -14.200  0.1090E-01  0.1200E+02
 -14.190  0.7336E-02  0.1200E+02
 -14.180  0.4889E-02  0.1200E+02
 -14.170  0.3226E-02  0.1200E+02
 -14.160  0.2106E-02  0.1200E+02
 -14.150  0.1362E-02  0.1200E+02
 -14.140  0.8714E-03  0.1200E+02
 -14.130  0.5520E-03  0.1200E+02
 -14.120  0.3461E-03  0.1200E+02
 -14.110  0.2148E-03  0.1200E+02
 -14.100  0.1320E-03  0.1200E+02
 -14.090  0.8024E-04  0.1200E+02
 -14.080  0.4830E-04  0.1200E+02
 -14.070  0.2877E-04  0.1200E+02
 -14.060  0.1697E-04  0.1200E+02
 -14.050  0.9904E-05  0.1200E+02
 -14.040  0.5722E-05  0.1200E+02
 -14.030  0.3272E-05  0.1200E+02
 -14.020  0.1852E-05  0.1200E+02
 -14.010  0.1037E-05  0.1200E+02
 -14.000  0.5752E-06  0.1200E+02
 -13.990  0.3157E-06  0.1200E+02
 -13.980  0.1715E-06  0.1200E+02
 -13.970  0.9218E-07  0.1200E+02
 -13.960  0.4905E-07  0.1200E+02
 -13.950  0.2583E-07  0.1200E+02
 -13.940  0.1346E-07  0.1200E+02
 -13.930  0.6945E-08  0.1200E+02
 -13.920  0.3546E-08  0.1200E+02
 -13.910  0.1792E-08  0.1200E+02
 -13.900  0.8962E-09  0.1200E+02
 -13.890  0.4436E-09  0.1200E+02
 -13.880  0.2173E-09  0.1200E+02
 -13.870  0.1054E-09  0.1200E+02
 -13.860  0.5056E-10  0.1200E+02
 -13.850  0.2401E-10  0.1200E+02
 -13.840  0.1129E-10  0.1200E+02
 -13.830  0.5250E-11  0.1200E+02
 -13.820  0.2417E-11  0.1200E+02
 -13.810  0.1101E-11  0.1200E+02
 -13.800  0.4964E-12  0.1200E+02
 -13.790  0.2215E-12  0.1200E+02
 -13.780  0.9783E-13  0.1200E+02
 -13.770  0.4276E-13  0.1200E+02
 -13.760  0.1849E-13  0.1200E+02
 -13.750  0.7915E-14  0.1200E+02
 -13.740  0.3353E-14  0.1200E+02
 -13.730  0.1406E-14  0.1200E+02
 -13.720  0.5831E-15  0.1200E+02
 -13.710  0.2394E-15  0.1200E+02
 -13.700  0.9727E-16  0.1200E+02
 -13.690  0.3911E-16  0.1200E+02
 -13.680  0.1556E-16  0.1200E+02
 -13.670  0.6127E-17  0.1200E+02
 -13.660  0.2388E-17  0.1200E+02
 -13.650  0.9207E-18  0.1200E+02
 -13.640  0.3513E-18  0.1200E+02
 -13.630  0.1327E-18  0.1200E+02
 -13.620  0.4958E-19  0.1200E+02
 -13.610  0.1833E-19  0.1200E+02
 -13.600  0.6709E-20  0.1200E+02
 -13.590  0.2429E-20  0.1200E+02
 -13.580  0.8705E-21  0.1200E+02
 -13.570  0.3087E-21  0.1200E+02
 -13.560  0.1083E-21  0.1200E+02
 -13.550  0.3761E-22  0.1200E+02
 -13.540  0.1292E-22  0.1200E+02
 -13.530  0.4394E-23  0.1200E+02
 -13.520  0.1478E-23  0.1200E+02
 -13.510  0.4922E-24  0.1200E+02
 -13.500  0.1621E-24  0.1200E+02
 -13.490  0.5286E-25  0.1200E+02
 -13.480  0.1705E-25  0.1200E+02
 -13.470  0.5442E-26  0.1200E+02
 -13.460  0.1719E-26  0.1200E+02
 -13.450  0.5372E-27  0.1200E+02
 -13.440  0.1661E-27  0.1200E+02
 -13.430  0.5084E-28  0.1200E+02
 -13.420  0.1539E-28  0.1200E+02
 -13.410  0.4612E-29  0.1200E+02
 -13.400  0.1367E-29  0.1200E+02
 -13.390  0.4011E-30  0.1200E+02
 -13.380  0.1164E-30  0.1200E+02
 -13.370  0.3344E-31  0.1200E+02
 -13.360  0.9502E-32  0.1200E+02
 -13.350  0.2672E-32  0.1200E+02
 -13.340  0.7434E-33  0.1200E+02
 -13.330  0.2047E-33  0.1200E+02
 -13.320  0.5575E-34  0.1200E+02
 -13.310  0.1503E-34  0.1200E+02
 -13.300  0.4007E-35  0.1200E+02
 -13.290  0.1057E-35  0.1200E+02
 -13.280  0.2761E-36  0.1200E+02
 -13.270  0.7131E-37  0.1200E+02
 -13.260  0.1823E-37  0.1200E+02
 -13.250  0.4610E-38  0.1200E+02
 -13.240  0.1154E-38  0.1200E+02
 -13.230  0.2856E-39  0.1200E+02
 -13.220  0.6996E-40  0.1200E+02
 -13.210  0.1696E-40  0.1200E+02
 -13.200  0.4067E-41  0.1200E+02
 -13.190  0.9649E-42  0.1200E+02
 -13.180  0.2265E-42  0.1200E+02
 -13.170  0.5262E-43  0.1200E+02
 -13.160  0.1209E-43  0.1200E+02
 -13.150  0.2750E-44  0.1200E+02
 -13.140  0.6186E-45  0.1200E+02
 -13.130  0.1377E-45  0.1200E+02
 -13.120  0.3033E-46  0.1200E+02
 -13.110  0.6608E-47  0.1200E+02
 -13.100  0.1425E-47  0.1200E+02
 -13.090  0.3039E-48  0.1200E+02
 -13.080  0.6413E-49  0.1200E+02
 -13.070  0.1339E-49  0.1200E+02
 -13.060  0.2766E-50  0.1200E+02
 -13.050  0.5654E-51  0.1200E+02
 -13.040  0.1143E-51  0.1200E+02
 -13.030  0.2287E-52  0.1200E+02
 -13.020  0.4528E-53  0.1200E+02
 -13.010  0.8867E-54  0.1200E+02
 -13.000  0.1718E-54  0.1200E+02
 -12.990  0.3294E-55  0.1200E+02
 -12.980  0.6247E-56  0.1200E+02
 -12.970  0.1172E-56  0.1200E+02
 -12.960  0.2176E-57  0.1200E+02
 -12.950  0.3997E-58  0.1200E+02
 -12.940  0.7263E-59  0.1200E+02
 -12.930  0.1306E-59  0.1200E+02
 -12.920  0.2323E-60  0.1200E+02
 -12.910  0.4088E-61  0.1200E+02
 -12.900  0.7117E-62  0.1200E+02
 -12.890  0.1226E-62  0.1200E+02
 -12.880  0.2089E-63  0.1200E+02
 -12.870  0.3522E-64  0.1200E+02
 -12.860  0.5875E-65  0.1200E+02
 -12.850  0.9696E-66  0.1200E+02
 -12.840  0.1583E-66  0.1200E+02
 -12.830  0.2557E-67  0.1200E+02
 -12.820  0.4086E-68  0.1200E+02
 -12.810  0.6460E-69  0.1200E+02
 -12.800  0.1010E-69  0.1200E+02
 -12.790  0.1564E-70  0.1200E+02
 -12.780  0.2394E-71  0.1200E+02
 -12.770  0.3626E-72  0.1200E+02
 -12.760  0.5433E-73  0.1200E+02
 -12.750  0.8055E-74  0.1200E+02
 -12.740  0.1181E-74  0.1200E+02
 -12.730  0.1714E-75  0.1200E+02
 -12.720  0.2461E-76  0.1200E+02
 -12.710  0.3495E-77  0.1200E+02
 -12.700  0.4910E-78  0.1200E+02
 -12.690  0.6825E-79  0.1200E+02
 -12.680  0.9386E-80  0.1200E+02
 -12.670  0.1277E-80  0.1200E+02
 -12.660  0.1721E-81  0.1200E+02
 -12.650  0.2315E-82  0.1200E+02
 -12.640  0.3282E-83  0.1200E+02
 -12.630  0.6643E-84  0.1200E+02
 -12.620  0.3236E-84  0.1200E+02
 -12.610  0.2810E-84  0.1200E+02
 -12.600  0.2759E-84  0.1200E+02
 -12.590  0.2755E-84  0.1200E+02
 -12.580  0.2755E-84  0.1200E+02
 -12.570  0.2755E-84  0.1200E+02
 -12.560  0.2755E-84  0.1200E+02
 -12.550  0.2755E-84  0.1200E+02
 -12.540  0.2755E-84  0.1200E+02
 -12.530  0.2755E-84  0.1200E+02
 -12.520  0.2755E-84  0.1200E+02
 -12.510  0.2755E-84  0.1200E+02
 -12.500  0.2755E-84  0.1200E+02
 -12.490  0.2755E-84  0.1200E+02
 -12.480  0.2755E-84  0.1200E+02
 -12.470  0.2755E-84  0.1200E+02
 -12.460  0.2755E-84  0.1200E+02
 -12.450  0.2755E-84  0.1200E+02
 -12.440  0.2755E-84  0.1200E+02
 -12.430  0.2755E-84  0.1200E+02
 -12.420  0.2755E-84  0.1200E+02
 -12.410  0.2755E-84  0.1200E+02
 -12.400  0.2755E-84  0.1200E+02
 -12.390  0.2755E-84  0.1200E+02
 -12.380  0.2755E-84  0.1200E+02
 -12.370  0.2755E-84  0.1200E+02
 -12.360  0.2755E-84  0.1200E+02
 -12.350  0.2755E-84  0.1200E+02
 -12.340  0.2755E-84  0.1200E+02
 -12.330  0.2755E-84  0.1200E+02
 -12.320  0.2755E-84  0.1200E+02
 -12.310  0.2755E-84  0.1200E+02
 -12.300  0.2755E-84  0.1200E+02
 -12.290  0.2755E-84  0.1200E+02
 -12.280  0.2755E-84  0.1200E+02
 -12.270  0.2755E-84  0.1200E+02
 -12.260  0.2755E-84  0.1200E+02
 -12.250  0.2755E-84  0.1200E+02
 -12.240  0.2755E-84  0.1200E+02
 -12.230  0.2755E-84  0.1200E+02
 -12.220  0.2755E-84  0.1200E+02
 -12.210  0.2755E-84  0.1200E+02
 -12.200  0.2755E-84  0.1200E+02
 -12.190  0.2755E-84  0.1200E+02
 -12.180  0.2755E-84  0.1200E+02
 -12.170  0.2755E-84  0.1200E+02
 -12.160  0.2755E-84  0.1200E+02
 -12.150  0.2755E-84  0.1200E+02
 -12.140  0.2755E-84  0.1200E+02
 -12.130  0.2755E-84  0.1200E+02
 -12.120  0.2755E-84  0.1200E+02
 -12.110  0.2755E-84  0.1200E+02
 -12.100  0.2755E-84  0.1200E+02
 -12.090  0.2755E-84  0.1200E+02
 -12.080  0.2755E-84  0.1200E+02
 -12.070  0.2755E-84  0.1200E+02
 -12.060  0.2755E-84  0.1200E+02
 -12.050  0.2755E-84  0.1200E+02
 -12.040  0.2755E-84  0.1200E+02
 -12.030  0.2755E-84  0.1200E+02
 -12.020  0.2755E-84  0.1200E+02
 -12.010  0.2755E-84  0.1200E+02
 -12.000  0.2755E-84  0.1200E+02
 -11.990  0.2755E-84  0.1200E+02
 -11.980  0.2755E-84  0.1200E+02
 -11.970  0.2755E-84  0.1200E+02
 -11.960  0.2755E-84  0.1200E+02
 -11.950  0.2755E-84  0.1200E+02
 -11.940  0.2755E-84  0.1200E+02
 -11.930  0.2755E-84  0.1200E+02
 -11.920  0.2755E-84  0.1200E+02
 -11.910  0.2755E-84  0.1200E+02
 -11.900  0.2755E-84  0.1200E+02
 -11.890  0.2755E-84  0.1200E+02
 -11.880  0.2755E-84  0.1200E+02
 -11.870  0.2755E-84  0.1200E+02
 -11.860  0.2755E-84  0.1200E+02
 -11.850  0.2755E-84  0.1200E+02
 -11.840  0.2755E-84  0.1200E+02
 -11.830  0.2755E-84  0.1200E+02
 -11.820  0.2755E-84  0.1200E+02
 -11.810  0.2755E-84  0.1200E+02
 -11.800  0.2755E-84  0.1200E+02
 -11.790  0.2755E-84  0.1200E+02
 -11.780  0.2755E-84  0.1200E+02
 -11.770  0.2755E-84  0.1200E+02
 -11.760  0.2755E-84  0.1200E+02
 -11.750  0.2755E-84  0.1200E+02
 -11.740  0.2755E-84  0.1200E+02
 -11.730  0.2755E-84  0.1200E+02
 -11.720  0.2755E-84  0.1200E+02
 -11.710  0.2755E-84  0.1200E+02
 -11.700  0.2755E-84  0.1200E+02
 -11.690  0.2755E-84  0.1200E+02
 -11.680  0.2755E-84  0.1200E+02
 -11.670  0.2755E-84  0.1200E+02
 -11.660  0.2755E-84  0.1200E+02
 -11.650  0.2755E-84  0.1200E+02
 -11.640  0.2755E-84  0.1200E+02
 -11.630  0.2755E-84  0.1200E+02
 -11.620  0.2755E-84  0.1200E+02
 -11.610  0.2755E-84  0.1200E+02
 -11.600  0.2755E-84  0.1200E+02
 -11.590  0.2755E-84  0.1200E+02
 -11.580  0.2755E-84  0.1200E+02
 -11.570  0.2755E-84  0.1200E+02
 -11.560  0.2755E-84  0.1200E+02
 -11.550  0.2755E-84  0.1200E+02
 -11.540  0.2755E-84  0.1200E+02
 -11.530  0.2755E-84  0.1200E+02
 -11.520  0.2755E-84  0.1200E+02
 -11.510  0.2755E-84  0.1200E+02
 -11.500  0.2755E-84  0.1200E+02
 -11.490  0.2755E-84  0.1200E+02
 -11.480  0.2755E-84  0.1200E+02
 -11.470  0.2755E-84  0.1200E+02
 -11.460  0.2755E-84  0.1200E+02
 -11.450  0.2755E-84  0.1200E+02
 -11.440  0.2755E-84  0.1200E+02
 -11.430  0.2755E-84  0.1200E+02
 -11.420  0.2755E-84  0.1200E+02
 -11.410  0.2755E-84  0.1200E+02
 -11.400  0.2755E-84  0.1200E+02
 -11.390  0.2755E-84  0.1200E+02
 -11.380  0.2755E-84  0.1200E+02
 -11.370  0.2755E-84  0.1200E+02
 -11.360  0.2755E-84  0.1200E+02
 -11.350  0.2755E-84  0.1200E+02
 -11.340  0.2755E-84  0.1200E+02
 -11.330  0.2755E-84  0.1200E+02
 -11.320  0.2755E-84  0.1200E+02
 -11.310  0.2755E-84  0.1200E+02
 -11.300  0.2755E-84  0.1200E+02
 -11.290  0.2755E-84  0.1200E+02
 -11.280  0.2755E-84  0.1200E+02
 -11.270  0.2755E-84  0.1200E+02
 -11.260  0.2755E-84  0.1200E+02
 -11.250  0.2755E-84  0.1200E+02
 -11.240  0.2755E-84  0.1200E+02
 -11.230  0.2755E-84  0.1200E+02
 -11.220  0.2755E-84  0.1200E+02
 -11.210  0.2755E-84  0.1200E+02
 -11.200  0.2755E-84  0.1200E+02
 -11.190  0.2755E-84  0.1200E+02
 -11.180  0.2755E-84  0.1200E+02
 -11.170  0.2755E-84  0.1200E+02
 -11.160  0.2755E-84  0.1200E+02
 -11.150  0.2755E-84  0.1200E+02
